0 9172743 9131309 8276143
1 9299828 9076637 8162483
2 9272314 8899962 7959562
3 9050310 8548973 7906706
4 9016483 8314548 7652361
5 8814634 7900544 7543825
6 8402989 7619541 7606392
7 7909212 7276120 7771426
8 7618724 7085948 7857679
9 7468545 7083071 7968804
10 7431403 7026136 8017237
11 7256703 7096053 8239461
12 7172301 7230622 8466402
13 7276172 7499514 8589174
14 7415582 7704869 8713701
15 7658420 8004527 8658624
16 8018332 8222584 8620794
17 8337835 8553289 8526270
18 8746435 8685315 8340114
19 9130820 8807555 8006783
20 9368850 8685263 7695462
21 9578178 8662563 7390559
22 9696926 8477756 7175592
23 9608244 8226845 6950978
24 9418451 7947962 6941037
25 9107536 7580134 6880417
26 8779827 7342289 6983040
27 8481121 7173671 7080278
28 8121875 7091291 7377677
29 7832332 6997487 7588774
30 7576820 7122342 7971437
31 7446570 7391006 8322160
32 7425877 7797768 8747096
33 7537191 8166484 9074040
34 7599277 8678055 9448323
35 7802243 9293881 9889250
36 8203032 9916952 10055139
37 8610319 10379406 10138869
38 9124122 10919422 10119871
39 9441256 11333310 10272665
40 9907566 11782907 10231589
41 10227640 12156201 10353155
42 10285705 12291823 10370922
43 10155220 12476999 10687163
44 10071221 12652603 10899642
45 9738657 12567241 11257418
46 9389743 12669095 11646868
47 9085547 12835019 12100331
48 8885722 12938942 12459852
49 8606554 13111951 12812988
50 8360144 13264508 13315636
51 8293811 13404797 13453851
52 8447704 13589534 13498233
53 8625771 13866130 13574749
54 8717234 14121660 13751777
55 9053048 14522647 13729416
56 9354901 14732279 13727668
57 9694483 14968366 13539286
58 9929076 15092543 13497546
59 10313675 15074343 13052233
60 10473001 14788063 12707697
61 10384356 14558716 12447865
62 10251137 14033724 12142726
63 9925318 13415170 11840944
64 9544909 12586075 11363027
65 9067803 11674567 11014643
66 8627477 10960761 10697064
67 8124071 10380812 10696353
68 7506347 9883307 10731713
69 7145425 9369404 10617298
70 6888667 8975285 10440823
71 6751667 8735174 10411958
72 6742868 8937476 10497265
73 6910671 8915190 10391096
74 7146259 9093913 10265665
75 7535696 9345716 10206754
76 7868311 9629002 10130175
77 8166163 9859785 10074230
78 8523815 9971394 9766124
79 8789047 10002953 9571561
80 9037250 10025748 9300807
81 9176825 9889981 9078796
82 9127065 9575997 8782346
83 9132898 9312031 8523260
84 9093510 8998918 8259775
85 8809217 8543104 8086290
86 8558813 8163905 8027903
87 8274451 7875680 7982343
88 7926755 7569417 8070478
89 7733225 7583942 8228295
90 7558680 7570248 8407700
91 7422910 7619768 8525179
92 7313485 7654644 8792013
93 7405529 7952832 8835706
94 7500222 8140037 9054173
95 7795708 8507141 9036210
96 8115557 8728073 9020671
97 8522479 9054517 8857461
98 8907107 9207547 8638714
99 9137104 9295468 8464250
100 9272035 9292929 8379271
101 9457360 9288613 8170874
102 9499528 9120573 7993886
103 9346000 8825834 7918692
104 9173078 8568970 7732100
105 8833706 8116467 7759755
106 8467634 7823230 7775018
107 8208769 7549003 7767773
108 7880504 7323718 7843414
109 7577130 7129206 7969622
110 7407172 7150481 8091720
111 7341577 7107443 8243906
112 7390749 7423441 8389805
113 7463494 7610469 8556272
114 7664183 7938997 8668108
115 7819476 8224598 8791834
116 8104231 8489805 8693752
117 8406559 8739190 8655697
118 8801122 8961037 8516384
119 9041767 9107557 8467590
120 9250899 9165369 8263174
121 9354544 9150560 8106442
122 9392636 8958271 7907579
123 9328412 8851525 7872004
124 9208555 8482078 7665204
125 9022945 8202563 7561532
126 8763720 7883638 7576042
127 8410972 7630791 7582581
128 8058268 7386397 7758529
129 7794083 7310331 7864750
130 7566180 7206293 8062320
131 7436024 7287450 8181637
132 7385107 7378053 8422167
133 7446483 7617337 8516298
134 7594813 7858529 8680836
135 7954658 8268034 8636023
136 8289510 8562164 8643176
137 8568219 8870325 8626737
138 8953626 9102747 8460048
139 9186684 9138282 8328774
140 9376863 9205856 8192995
141 9464684 9146545 8032876
142 9487089 9000134 7868255
143 9440061 8827119 7774642
144 9277202 8566391 7642715
145 8991428 8151315 7556579
146 8689402 7861466 7553588
147 8307448 7514667 7611875
148 8016954 7357601 7771899
149 7750186 7248596 7957810
150 7469656 7242094 8111145
151 7439773 7253403 8295606
152 7435125 7480675 8392371
153 7603068 7695279 8474474
154 7781079 7986928 8545831
155 8062698 8336006 8677849
156 8393822 8658846 8626515
157 8707558 8989565 8643852
158 9125184 9241617 8485214
159 9286823 9343569 8414649
160 9458376 9331402 8247047
161 9512090 9328513 8158436
162 9539293 9095695 7941089
163 9536630 8979765 7764657
164 9425804 8636799 7615271
165 9126314 8295503 7587722
166 8793562 7974643 7598712
167 8489242 7733087 7618246
168 8052521 7389381 7773345
169 7773596 7284549 7861024
170 7577674 7191114 8039270
171 7455956 7264464 8187654
172 7441491 7462149 8477700
173 7647911 7810831 8485398
174 7869378 8152011 8631605
175 8207194 8514711 8642832
176 8497135 8809357 8709145
177 8764702 9056869 8644601
178 9095924 9303822 8546998
179 9332352 9395667 8440551
180 9527951 9403663 8222070
181 9671992 9334028 8061520
182 9638447 9191243 7886185
183 9599875 8904297 7743220
184 9417431 8689257 7567423
185 9148468 8238144 7556383
186 8891743 8010524 7508492
187 8667096 7762665 7555842
188 8335520 7595898 7608461
189 7996319 7401720 7898183
190 7719826 7424703 8070756
191 7589704 7422844 8249206
192 7618182 7613505 8376843
193 7743957 7845410 8473708
194 7900561 8097557 8584925
195 8183299 8466409 8680845
196 8523112 8776006 8634647
197 8894561 9124799 8584847
198 9261888 9310851 8405104
199 9562254 9508650 8266148
200 9715882 9452780 8142610
201 9684048 9399583 8061579
202 9727380 9223974 7861264
203 9766814 9209130 7734090
204 9665501 8964610 7675057
205 9390899 8593710 7536240
206 9007820 8198872 7620899
207 8690854 7911915 7538322
208 8371955 7697509 7728793
209 8039865 7543041 7861657
210 7906738 7495075 8002106
211 7843855 7606981 8144145
212 7829849 7857073 8438265
213 7988511 8125330 8505909
214 8079196 8358083 8654711
215 8280762 8610634 8719125
216 8621622 8994448 8702678
217 9073612 9292429 8622250
218 9477153 9590315 8480817
219 9730814 9714093 8333762
220 9816272 9701684 8194471
221 9882803 9573132 8102609
222 9901578 9424330 7819875
223 9907016 9199121 7705398
224 9821606 8999404 7492443
225 9516138 8568280 7490427
226 9261441 8333719 7425607
227 8929323 8050582 7580882
228 8588595 7883431 7695741
229 8246475 7744281 7887988
230 8014858 7661737 8047767
231 7909009 7766282 8258418
232 7983161 7971959 8373924
233 8006959 8202864 8559392
234 8208424 8436031 8589982
235 8525249 8854651 8608462
236 8852901 9061273 8613794
237 9226510 9454908 8558972
238 9572358 9722487 8547354
239 9850997 9960208 8401850
240 10079378 9892681 8225943
241 10226736 9892529 8014286
242 10137588 9633791 7855064
243 9977769 9351908 7720015
244 9876519 9109387 7628737
245 9668839 8821946 7568892
246 9402180 8539502 7617744
247 9119001 8313663 7562641
248 8743739 8067435 7754734
249 8471741 7943082 7883142
250 8260635 7926975 8066562
251 8183048 7989196 8209460
252 8140511 8224792 8481000
253 8268820 8397467 8579541
254 8398861 8689760 8648024
255 8628620 9010059 8762429
256 8988005 9427258 8755295
257 9287428 9665000 8762502
258 9630318 9904896 8559558
259 9895666 10048877 8509230
260 10121337 10110526 8292751
261 10322878 10051828 8106547
262 10335791 9959872 7958943
263 10198290 9717533 7939737
264 10096699 9387326 7639766
265 9725293 8980683 7649388
266 9414831 8706479 7661312
267 9129294 8450439 7729257
268 8774242 8185649 7838967
269 8509403 8146406 7966202
270 8318551 8209284 8266890
271 8170105 8271397 8453427
272 8165787 8364291 8614545
273 8139196 8523912 8755152
274 8347005 8805102 8852152
275 8654830 9234585 8931277
276 8948030 9500480 8941036
277 9221293 9813586 8897655
278 9551640 10007671 8802916
279 9960617 10258729 8594821
280 10193510 10270997 8476305
281 10375284 10308491 8236246
282 10292208 9989122 8083663
283 10087242 9753827 7973927
284 9919080 9420232 7902935
285 9622231 9044566 7814198
286 9290648 8736638 7806077
287 9000047 8439386 7802606
288 8641500 8238408 8006633
289 8400566 8080652 8132687
290 8244703 8057120 8211385
291 8074425 8039389 8334148
292 8013893 8226401 8586925
293 8120836 8469738 8752991
294 8196921 8763641 8902519
295 8382296 9008018 9068947
296 8701441 9403689 9007307
297 9080064 9702824 8941102
298 9387540 9861546 8778383
299 9630016 9933963 8696254
300 9741554 10006962 8607566
301 9857198 9905296 8428370
302 9823369 9659411 8168082
303 9739255 9444615 8115744
304 9587098 9187184 7968420
305 9264420 8761971 7900038
306 8937181 8479908 7895629
307 8542419 8095657 7923093
308 8123193 7779726 8042469
309 7977686 7715858 8186275
310 7765338 7673199 8348644
311 7538788 7691057 8530053
312 7557149 7860993 8701256
313 7618676 8056038 8790275
314 7735232 8300000 8970684
315 8031405 8603502 8909738
316 8374227 8860956 8885992
317 8716947 9219618 8823496
318 9006576 9448630 8819267
319 9256525 9561944 8610860
320 9445801 9540640 8478901
321 9458364 9461478 8308217
322 9505773 9280173 8123151
323 9415742 9024244 8005791
324 9239718 8774797 7879898
325 8998122 8329893 7742996
326 8627859 8062550 7828897
327 8254697 7715172 7865766
328 7865370 7485268 8004158
329 7608728 7303224 8085048
330 7437591 7258257 8229952
331 7287634 7245182 8380282
332 7280271 7455798 8527504
333 7373620 7628918 8688156
334 7441060 7916829 8789956
335 7752180 8228676 8889496
336 8063124 8575354 8825989
337 8456298 8848807 8847495
338 8824864 9194299 8690550
339 9111732 9270780 8568597
340 9290316 9340077 8338308
341 9433587 9300105 8246094
342 9377706 9137574 8077397
343 9167761 8852341 8040306
344 8966212 8448186 7848136
345 8748035 8105416 7734374
346 8568348 7841061 7696750
347 8194546 7637851 7780475
348 7905589 7347840 7894574
349 7588339 7288751 8055433
350 7415207 7260507 8265785
351 7237579 7313197 8425150
352 7235977 7408639 8574517
353 7388401 7688314 8624180
354 7504102 7857657 8827334
355 7745123 8320277 8910484
356 8041434 8602459 8966359
357 8284563 8897471 8988392
358 8502611 9041671 8945133
359 8785917 9125496 8641813
360 9099961 9175803 8469982
361 9305132 9218394 8316614
362 9290536 9030340 8099887
363 9131212 8731582 7988144
364 9015013 8546021 7889525
365 8758815 8151285 7769799
366 8518983 7843563 7717369
367 8206916 7571807 7777947
368 7924347 7455859 7892696
369 7622655 7235197 8071509
370 7371801 7232009 8264535
371 7194960 7218056 8467649
372 7198104 7500994 8625556
373 7302234 7648770 8744528
374 7502617 7922053 8794284
375 7769450 8303890 8962467
376 8009139 8639838 8922204
377 8431187 8873640 8859593
378 8787877 9145342 8759922
379 8991903 9283678 8614975
380 9221545 9260144 8394654
381 9263122 9244629 8327851
382 9285386 9049270 8127957
383 9186631 8840549 8011545
384 9071806 8551224 7837969
385 8823517 8225991 7737617
386 8442501 7788915 7793291
387 8029578 7599552 7940744
388 7653903 7387236 8169384
389 7525240 7391667 8207168
390 7388171 7262116 8311284
391 7232246 7344767 8418668
392 7230572 7559747 8710923
393 7348785 7755640 8713272
394 7460219 7906686 8849421
395 7728534 8342589 8956691
396 7981500 8553821 8994751
397 8271563 8852406 8895556
398 8761820 9107020 8714783
399 9115948 9306012 8539258
400 9271388 9299581 8407059
401 9262793 9209989 8363820
402 9179111 8988029 8182407
403 9130541 8779066 8042249
404 9089328 8686449 7886603
405 8830993 8234412 7795509
406 8501313 7902189 7784861
407 8164074 7571383 7824946
408 7705382 7271875 7964798
409 7494687 7145638 8072917
410 7411079 7242496 8180951
411 7271803 7220488 8378515
412 7285135 7498094 8560781
413 7403247 7676476 8681500
414 7573795 7994818 8802109
415 7738134 8289211 8995345
416 7981914 8573530 8906081
417 8295495 8799548 8934251
418 8711713 9123718 8748980
419 8996027 9218470 8619888
420 9172362 9241727 8409743
421 9326704 9240188 8333761
422 9339740 9051484 8100507
423 9183262 8856653 8003203
424 9002830 8520110 7885792
425 8668841 8138610 7834762
426 8379591 7765817 7772794
427 8141705 7510953 7778426
428 7761565 7245243 7970758
429 7418894 7113979 8082281
430 7279835 7126648 8289783
431 7189989 7290688 8402876
432 7208407 7474890 8658453
433 7372476 7743889 8709010
434 7524134 7922244 8874465
435 7745410 8317239 8930177
436 7979898 8514347 8921318
437 8322554 8812457 8813609
438 8704160 9077360 8701640
439 8957049 9138736 8525439
440 9125644 9163060 8343504
441 9352354 9135488 8194754
442 9390888 9018032 7959744
443 9286831 8855246 7956179
444 9183899 8649906 7826829
445 8892510 8158385 7757916
446 8483878 7870111 7717917
447 8176790 7556791 7787674
448 7810644 7334300 7901819
449 7514593 7136010 8034191
450 7321651 7147571 8162072
451 7092313 7082741 8457064
452 7070766 7302287 8617251
453 7209372 7607077 8795125
454 7465198 7930790 8788900
455 7789236 8320112 8917051
456 8102665 8627758 8849452
457 8370627 8861176 8828540
458 8694283 9089412 8689628
459 9027035 9226851 8540889
460 9300516 9305322 8364723
461 9455719 9238733 8158341
462 9459024 8943783 7903962
463 9257961 8696115 7775614
464 9007028 8430489 7794583
465 8699722 8040206 7707343
466 8365232 7741700 7752230
467 8301729 7678487 7707463
468 7979077 7356232 7838783
469 7586565 7207057 7985775
470 7283850 7085503 8293749
471 7153915 7198024 8407263
472 7180542 7324562 8586491
473 7257176 7602760 8671130
474 7408008 7787055 8825108
475 7713584 8219728 8832918
476 8079269 8522166 8834885
477 8398889 8823527 8758072
478 8733789 9016495 8629605
479 9025604 9088219 8496032
480 9040943 9118829 8403914
481 9226557 9087935 8186882
482 9345641 8965938 7955159
483 9207577 8677907 7883066
484 9039060 8491782 7792773
485 8792983 8075445 7700049
486 8517538 7833325 7608432
487 8140468 7485755 7758413
488 7766094 7213656 7800670
489 7486358 7030975 8009100
490 7303557 7063309 8136764
491 7163612 7100644 8373381
492 7132661 7252599 8485134
493 7204568 7412437 8606268
494 7459330 7749039 8652544
495 7704483 8169420 8803345
496 8064471 8438593 8760184
497 8318986 8662398 8767161
498 8661958 8863480 8593149
499 8990742 9088191 8477612
500 9244481 9159513 8293463
501 9290021 9103443 8196259
502 9223778 8899556 8035915
503 9142723 8703592 7890165
504 9009230 8358389 7775761
505 8769480 8000537 7602391
506 8492614 7661591 7595840
507 8165532 7469799 7651005
508 7769067 7189342 7887854
509 7433057 7049164 8010742
510 7271072 7003090 8177017
511 7101488 7029957 8263015
512 7161901 7258618 8476973
513 7247012 7480640 8610944
514 7436830 7798571 8776095
515 7706410 8127299 8824596
516 7926029 8386454 8795764
517 8231496 8619103 8775754
518 8686955 8951765 8638104
519 8957764 9075219 8508408
520 9147089 9126609 8305853
521 9253638 8986880 8152597
522 9236235 8822667 7924500
523 9078329 8587891 7937954
524 8946938 8394333 7730308
525 8741177 7931744 7604244
526 8469909 7683043 7574377
527 8144845 7368769 7646962
528 7812898 7214091 7740327
529 7559487 7144270 8029416
530 7316749 7094008 8162085
531 7042362 7037327 8392238
532 6961222 7191825 8640173
533 7055676 7462827 8768686
534 7280189 7701452 8807458
535 7702234 8142983 8803178
536 8064304 8419673 8706999
537 8336835 8688040 8663408
538 8672448 8895920 8631702
539 8933744 9103729 8451025
540 9137516 9052955 8315078
541 9246730 9057457 8136652
542 9212867 8825782 8036535
543 9227401 8711847 7777606
544 9119351 8400129 7656596
545 8847672 8090597 7591195
546 8456207 7742791 7682797
547 8242711 7539411 7625205
548 7839397 7207677 7801695
549 7526972 7047447 7885308
550 7383337 7102949 8096044
551 7304922 7150194 8256650
552 7293362 7315228 8400977
553 7357343 7455621 8495344
554 7475009 7745192 8669670
555 7678866 8094071 8743789
556 7947238 8333189 8731657
557 8301916 8539718 8653467
558 8691491 8863198 8495204
559 8967562 9014816 8463450
560 9105520 9048982 8332336
561 9166116 8986219 8191670
562 9205705 8796380 7931820
563 9099733 8508711 7842565
564 8917912 8245399 7642842
565 8705914 7874951 7590528
566 8380281 7647742 7615643
567 8015925 7394325 7794253
568 7636838 7136466 7844386
569 7357637 6944239 7951668
570 7255192 6982379 8144253
571 7135007 7122746 8344562
572 7177376 7262096 8542289
573 7247137 7482943 8617243
574 7440235 7712356 8709115
575 7790021 8242404 8775049
576 8012767 8443918 8792176
577 8338314 8725816 8690335
578 8688065 8889320 8613924
579 8974027 9070883 8417385
580 9175017 9084834 8284210
581 9309389 9037411 8055884
582 9347428 8857909 7909828
583 9198051 8636153 7783033
584 9052824 8409315 7717923
585 8708407 7972722 7653487
586 8316524 7659366 7776664
587 8030045 7325196 7692724
588 7664362 7066294 7806070
589 7361000 6917489 7991053
590 7044865 6887750 8244446
591 6995942 6939193 8359113
592 7123024 7141118 8386085
593 7308526 7351011 8471450
594 7426616 7705773 8644842
595 7703654 8087588 8836515
596 8007103 8429894 8738640
597 8332275 8612876 8722748
598 8698329 8926573 8572972
599 9013255 9097716 8470582
600 9242611 9116772 8235422
601 9279646 9030527 8143455
602 9234939 8769483 7877859
603 9140288 8586250 7808907
604 9026091 8371829 7703554
605 8757858 7981618 7593423
606 8434657 7641131 7654082
607 8141597 7410209 7688699
608 7756177 7135079 7756128
609 7447133 7017593 7963646
610 7168812 6945817 8155388
611 7144271 7091803 8309616
612 7154723 7236165 8501146
613 7250263 7469779 8566174
614 7389192 7657328 8732754
615 7712720 8141468 8794593
616 8026001 8411039 8807856
617 8253010 8665626 8677387
618 8554796 8789199 8665659
619 8860903 8978927 8492902
620 9053920 8994839 8340488
621 9155830 8989482 8161648
622 9213453 8807491 7980580
623 9116143 8574094 7857906
624 8978580 8393824 7706747
625 8820968 8043968 7640522
626 8494948 7770647 7659240
627 8151051 7472779 7704881
628 7755928 7193359 7842673
629 7423508 7039049 8053874
630 7305381 7053606 8102351
631 7267950 7103448 8292144
632 7261438 7394100 8435791
633 7285439 7537042 8681164
634 7463279 7860165 8838687
635 7695783 8300112 8978226
636 8019413 8586440 8926455
637 8279592 8879322 8997497
638 8688533 9177158 8846323
639 8953300 9221237 8677472
640 9135425 9204844 8416654
641 9238984 9136551 8244028
642 9308640 9030080 8079578
643 9247736 8890923 7998306
644 9048996 8549632 7861814
645 8725344 8194449 7817278
646 8379507 7865186 7888992
647 8035866 7631009 7976134
648 7697371 7379659 8125478
649 7460098 7301633 8220326
650 7320414 7241246 8382123
651 7151648 7333575 8535503
652 7171474 7421969 8690911
653 7346336 7702992 8655421
654 7524941 7950850 8813469
655 7905469 8410415 8864348
656 8106114 8747339 8975632
657 8383013 9012256 8969058
658 8719679 9311209 8923166
659 9074750 9431004 8738283
660 9277686 9524557 8605519
661 9318731 9475156 8497644
662 9254821 9283589 8302258
663 9193621 8996166 8173441
664 9075619 8780068 8048926
665 8809847 8359781 7960804
666 8586833 8158036 7914158
667 8366387 7860816 7934132
668 8045117 7663137 7975643
669 7766798 7536578 8249120
670 7615622 7640262 8377805
671 7436499 7597110 8632138
672 7385060 7777722 8801595
673 7395558 7941132 8969860
674 7602628 8267159 9043915
675 7927887 8745795 9213362
676 8239162 8936543 9069585
677 8547009 9161931 9041835
678 8950722 9443521 8841297
679 9176184 9540815 8716833
680 9392288 9513431 8479835
681 9520904 9489117 8287712
682 9606807 9269432 8074010
683 9563715 9145457 7912315
684 9374865 8834833 7856622
685 9009196 8446598 7775267
686 8734547 8128784 7862457
687 8473426 7936375 7781311
688 8094025 7625526 7985823
689 7750676 7476267 8114885
690 7467490 7443417 8407175
691 7306677 7496921 8512453
692 7344209 7575639 8662852
693 7457681 7779509 8710782
694 7603631 7982623 8801509
695 7915062 8394819 8822754
696 8182823 8645751 8838973
697 8459975 8866843 8787516
698 8836227 9132866 8654092
699 9072439 9165257 8475760
700 9146458 9168193 8371279
701 9254862 9037821 8156375
702 9298069 8885929 7916302
703 9261327 8662654 7854403
704 8988247 8429228 7757317
705 8727616 8036032 7744526
706 8461820 7785274 7678350
707 8207889 7454859 7683776
708 7787479 7151909 7743254
709 7510401 6985193 7929539
710 7300357 7052101 8111097
711 7067243 7096616 8446156
712 7187429 7346769 8533799
713 7361258 7558316 8595345
714 7567830 7811699 8646537
715 7787832 8152599 8722046
716 8102275 8368697 8664185
717 8361274 8689921 8674907
718 8583062 8839614 8623601
719 8892304 9071781 8521312
720 9159771 9027196 8336872
721 9219419 9075210 8156234
722 9236833 8771696 7921104
723 9101259 8536402 7774947
724 8958462 8244125 7710123
725 8643720 7835546 7519128
726 8368616 7556402 7640470
727 8035421 7323804 7661275
728 7675098 7023392 7737934
729 7370430 6869625 7878621
730 7250012 6961520 8132605
731 7127889 7002518 8275665
732 7056472 7156688 8481704
733 7201969 7328198 8505479
734 7382164 7592317 8563052
735 7629346 7951133 8686554
736 7899378 8227063 8663696
737 8263750 8475118 8598908
738 8589824 8760412 8468280
739 8888783 8880516 8329646
740 9119122 8981721 8175461
741 9173516 8848143 8089959
742 9178789 8718105 7872870
743 9151722 8462545 7720610
744 8999517 8249994 7587751
745 8703082 7822976 7594126
746 8413692 7578693 7546149
747 8180761 7368403 7583294
748 7863818 7086190 7661054
749 7487428 6926102 7825867
750 7292063 6911776 8015624
751 7077580 6939568 8255382
752 7067299 7091494 8422555
753 7185888 7310797 8479195
754 7404106 7547992 8533487
755 7672995 7994927 8632122
756 8016679 8293117 8668910
757 8308180 8601453 8619324
758 8670092 8748707 8501083
759 8893842 8901934 8333103
760 9041651 8870696 8259736
761 9116149 8908373 8045044
762 9133767 8661610 7855341
763 9025344 8414316 7780588
764 8835092 8144489 7755181
765 8664529 7840994 7568051
766 8342404 7547245 7549416
767 8037250 7223971 7545249
768 7633946 6891175 7653955
769 7435279 6800759 7769646
770 7303051 6837820 7927520
771 7247258 6767280 7946431
772 7228540 6930376 8105979
773 7273302 7030623 8137326
774 7519587 7205014 8035687
775 7921599 7607355 8026428
776 8295477 7914621 7899410
777 8613536 8026409 7828416
778 8985075 8337104 7696083
779 9214971 8459141 7701015
780 9409220 8601853 7534979
781 9493487 8606035 7471852
782 9455861 8457843 7357482
783 9449258 8343475 7318462
784 9264911 8148803 7211957
785 8841653 7840598 7464335
786 8476213 7782771 7706020
787 8203814 7784919 7976627
788 7887301 7814009 8308774
789 7658207 7953249 8686631
790 7560858 8244378 9123869
791 7442504 8618723 9594292
792 7474768 9065289 10027924
793 7556279 9645818 10442979
794 7880481 10217911 10788193
795 8335195 11075100 11050546
796 8734019 11544948 11183653
797 9115403 12131207 11317832
798 9598165 12842901 11628957
799 9952369 13459668 11827300
800 10112431 13764332 12021277
801 10229666 14191274 12243065
802 10231982 14378709 12538271
803 10149076 14575060 12740723
804 10108578 14717729 12956969
805 9932390 14697391 13091499
806 9655256 14363111 13003415
807 9466210 14032742 12952260
808 9045813 13872445 13186377
809 8919222 13787896 13236803
810 8754290 13709130 13314250
811 8578683 13548433 13361730
812 8588439 13786251 13512169
813 8652336 13813253 13542159
814 8767616 13773233 13297191
815 8968289 13959329 13380458
816 9110580 14004337 13187330
817 9296605 13819358 12879452
818 9592401 13656548 12336894
819 9723979 13228610 11848034
820 9817147 12651900 11195217
821 9657695 12152492 10873328
822 9368658 11528661 10529170
823 9106206 10900217 10173645
824 8883183 10308907 9757950
825 8564578 9684959 9494084
826 8169719 9182157 9401950
827 7815448 8796201 9352458
828 7449318 8379381 9373187
829 7182950 8124295 9304853
830 7023961 8035406 9374953
831 6999224 8016192 9403739
832 7089332 8133825 9497331
833 7228710 8381655 9460447
834 7384393 8451428 9499251
835 7605032 8830920 9525123
836 7855994 8935824 9481517
837 8193628 9124895 9292921
838 8678800 9426289 9113142
839 9081471 9564325 8798563
840 9276788 9519121 8632533
841 9354539 9502911 8478050
842 9330964 9229280 8281065
843 9244359 8979181 8118537
844 9001743 8697724 8045225
845 8648031 8187948 7956503
846 8322080 7941109 7944936
847 8129708 7654747 7920400
848 7855514 7435227 7978992
849 7602180 7263654 8105102
850 7378188 7252430 8249618
851 7225254 7204804 8395079
852 7229470 7425043 8506014
853 7385611 7572771 8648718
854 7409962 7851477 8781726
855 7589402 8216431 9012801
856 7916694 8461443 8868988
857 8208338 8665576 8825695
858 8544372 8836773 8624902
859 8911470 9006405 8474544
860 9125758 9086523 8297034
861 9273946 9119988 8208144
862 9366439 8996408 7954869
863 9269219 8683449 7786568
864 9052837 8338279 7692915
865 8801997 7970999 7527791
866 8479279 7675159 7619894
867 8210158 7474213 7629400
868 7914816 7224805 7768115
869 7541789 7157786 7930302
870 7358990 7056978 8156174
871 7216483 7092002 8217798
872 7247744 7227571 8397554
873 7396225 7483294 8437357
874 7526656 7715861 8595438
875 7825221 8164081 8620361
876 8193381 8491882 8723338
877 8478116 8824614 8711781
878 8842820 9161158 8652255
879 9147588 9255573 8432476
880 9339917 9198402 8231016
881 9476379 9127754 8008457
882 9540217 8929804 7806352
883 9321170 8629137 7685791
884 9106002 8424476 7654773
885 8844656 7992241 7626132
886 8537846 7766125 7622020
887 8279883 7455461 7611218
888 7874532 7216648 7688056
889 7548592 7002778 7916383
890 7348096 7006329 8013937
891 7246039 7030964 8247285
892 7308440 7310083 8316711
893 7480428 7492786 8432547
894 7653888 7846965 8536401
895 7873649 8179173 8701948
896 8218404 8522439 8620511
897 8560566 8796000 8635224
898 8918700 9086566 8527600
899 9156203 9237081 8407937
900 9362182 9168461 8167170
901 9391559 9119004 8041358
902 9425916 8934764 7864859
903 9466372 8837163 7670681
904 9337233 8547998 7637743
905 9000956 8171236 7533705
906 8563370 7778002 7604607
907 8307526 7569234 7634269
908 8017518 7275402 7760667
909 7684772 7212269 7865615
910 7547567 7147380 8037987
911 7448169 7262719 8148793
912 7444209 7379671 8396700
913 7528147 7662503 8477902
914 7715169 7845484 8574387
915 7866058 8238090 8735244
916 8251122 8536325 8655217
917 8582648 8826467 8600864
918 8839255 9055132 8582127
919 9151306 9168538 8377604
920 9368738 9224358 8191161
921 9535492 9136654 7975726
922 9546520 8975706 7778176
923 9468312 8775231 7682714
924 9277323 8557958 7633358
925 9029041 8114170 7563094
926 8643935 7867752 7577908
927 8344433 7582410 7672894
928 7998108 7386600 7751084
929 7747377 7183594 7917141
930 7523222 7188737 8010513
931 7374686 7196561 8247853
932 7474429 7462935 8354020
933 7616998 7641522 8488749
934 7764645 7875831 8508038
935 7969050 8314958 8711655
936 8383371 8620025 8641465
937 8669959 8964116 8643635
938 9124519 9263324 8483209
939 9440852 9497032 8374743
940 9615697 9409378 8144378
941 9732093 9372634 7999774
942 9732689 9134064 7814973
943 9516408 8918755 7760376
944 9337953 8635640 7712065
945 9110502 8298078 7579294
946 8839125 8021718 7592310
947 8514434 7731623 7557625
948 8113392 7360206 7683071
949 7887850 7393022 7845497
950 7779785 7424889 8100624
951 7676416 7529440 8231828
952 7621587 7653967 8439870
953 7799121 7870509 8427134
954 7990732 8087247 8518541
955 8225045 8545009 8641702
956 8428882 8799714 8710498
957 8908484 9161665 8687742
958 9224645 9436923 8552190
959 9496675 9468410 8353850
960 9641296 9516694 8253196
961 9725397 9428643 8112483
962 9641836 9306829 8013924
963 9616198 9084279 7896134
964 9646046 8958987 7641316
965 9414984 8566574 7590198
966 9060535 8322876 7634860
967 8716852 7971090 7683793
968 8411171 7710210 7672595
969 8197272 7573262 7836311
970 7976187 7572486 7967700
971 7764986 7531465 8228090
972 7700441 7736688 8431887
973 7801554 7947917 8559638
974 7945763 8222147 8605660
975 8169229 8556246 8765181
976 8483236 8858464 8758580
977 8857980 9209131 8746559
978 9247749 9510026 8604828
979 9564382 9729416 8492032
980 9710554 9695336 8344652
981 9862238 9655957 8160826
982 9902871 9448002 7945196
983 9891946 9342364 7811880
984 9788104 9113998 7733910
985 9554536 8735610 7526006
986 9174391 8428814 7638509
987 8953329 8201373 7660337
988 8594563 7931130 7780132
989 8292032 7830833 7885231
990 8041701 7772694 8133778
991 7906541 7787680 8240542
992 7870624 7991240 8499688
993 7990973 8195202 8600482
994 8170124 8502741 8700201
995 8479057 8867926 8739964
996 8783923 9166358 8730118
997 9115601 9418008 8733977
998 9370790 9626656 8574371
999 9743366 9764223 8410698
1000 9999034 9902598 8230138
1001 10096168 9832718 8164030
1002 10046490 9705434 8007564
1003 9871266 9431988 7952890
1004 9707457 9240680 7887795
1005 9500438 8890068 7787408
1006 9269595 8593603 7679166
1007 9040368 8265462 7640604
1008 8707842 8063139 7740524
1009 8493217 8011622 7957169
1010 8314533 8056578 8121809
1011 8146663 8098189 8328650
1012 8189619 8274828 8485145
1013 8216079 8523915 8660007
1014 8269483 8659240 8790174
1015 8471449 9034978 8891782
1016 8827386 9305722 8907597
1017 9132701 9612689 8849462
1018 9508580 9889878 8752345
1019 9820302 10120236 8574144
1020 9968822 10016402 8458553
1021 10048774 10073720 8353012
1022 10043350 9836395 8230729
1023 9984800 9740205 8088473
1024 9909347 9483149 7972526
1025 9686043 9120754 7787237
1026 9335564 8802203 7889537
1027 9050751 8557776 7861601
1028 8613930 8261936 8080491
1029 8317988 8144464 8168267
1030 8226376 8172416 8329971
1031 8180027 8216143 8453482
1032 8093880 8394575 8648493
1033 8182219 8571791 8779708
1034 8214044 8776190 8927264
1035 8508402 9174023 9052394
1036 8832011 9543395 8987979
1037 9097429 9731004 9011244
1038 9444193 10063580 8959739
1039 9703668 10191933 8846787
1040 9964577 10231171 8550130
1041 10033872 10105672 8465675
1042 10090285 9961930 8222512
1043 9883665 9669774 8203911
1044 9798935 9481756 8049099
1045 9610481 9104613 7938132
1046 9259174 8808372 7881683
1047 8900606 8456881 8016421
1048 8468220 8207480 8081951
1049 8174378 7998198 8212985
1050 8000390 7916028 8353415
1051 7808699 7966620 8528574
1052 7788682 8070420 8704670
1053 7826030 8274232 8818780
1054 7940706 8488021 8941884
1055 8202487 8932499 9066247
1056 8479995 9183487 9095803
1057 8760995 9454397 9070296
1058 9088877 9644889 8924439
1059 9444443 9861479 8715287
1060 9579913 9768572 8606668
1061 9662523 9698799 8355697
1062 9632730 9445749 8255519
1063 9513767 9292740 8117259
1064 9409299 9105560 8115242
1065 9051472 8645040 7945848
1066 8746263 8331658 7984385
1067 8418912 8028614 8006046
1068 8049394 7709124 8051755
1069 7791947 7487814 8179528
1070 7525220 7469502 8377762
1071 7357234 7482845 8507050
1072 7418451 7781433 8680697
1073 7405004 7840870 8846020
1074 7475565 8043432 8957534
1075 7785521 8464090 9045124
1076 8251145 8808535 8927409
1077 8560753 9128538 8930750
1078 8958593 9364870 8726747
1079 9171559 9426319 8668708
1080 9296544 9449756 8492224
1081 9398969 9367969 8324324
1082 9466062 9193596 8085329
1083 9394129 9022552 8057478
1084 9231670 8722944 7875610
1085 8939175 8312987 7824203
1086 8543109 8001416 7822651
1087 8271015 7674855 7850467
1088 7954303 7402172 7897832
1089 7541794 7226882 8074142
1090 7399152 7221889 8209422
1091 7318090 7335749 8400933
1092 7292794 7467386 8630239
1093 7319404 7695585 8750502
1094 7531283 7917417 8808861
1095 7785175 8359020 8919492
1096 8113914 8628485 8902391
1097 8400525 8909747 8839515
1098 8700834 9187169 8852060
1099 8943131 9321978 8704677
1100 9184766 9296044 8489911
1101 9327633 9263496 8271290
1102 9292662 9017683 8117627
1103 9204613 8867803 7948847
1104 9027334 8563671 7933373
1105 8722527 8156918 7812286
1106 8275769 7859012 7974543
1107 8025290 7591149 7930648
1108 7677004 7326062 8064486
1109 7374329 7079497 8135401
1110 7147107 7008896 8261598
1111 7190792 7144795 8371073
1112 7254988 7446039 8549133
1113 7485116 7737532 8691443
1114 7583612 8015359 8786829
1115 7831728 8364487 8976132
1116 8144419 8715233 8907247
1117 8275752 8762120 8906985
1118 8636091 9110926 8801147
1119 8932701 9254794 8719616
1120 9137109 9303724 8471123
1121 9231548 9241966 8405785
1122 9101327 9045197 8226240
1123 9061457 8779963 8167219
1124 8940440 8613690 7990746
1125 8810084 8194457 7789663
1126 8605498 7970857 7796758
1127 8233692 7767784 7903798
1128 7868759 7445630 7982917
1129 7449818 7177273 8130727
1130 7329086 7185486 8241231
1131 7200559 7223774 8426255
1132 7113350 7365494 8681743
1133 7180982 7590905 8820630
1134 7387800 7833743 8854124
1135 7646471 8302901 8961929
1136 7933427 8477401 8982435
1137 8232013 8787295 8894804
1138 8617178 8978777 8812455
1139 8866155 9125956 8623256
1140 8977574 9102288 8550625
1141 9160851 9213850 8378854
1142 9313781 9097038 8190333
1143 9326301 8984146 8020883
1144 9188801 8765073 7967223
1145 8866887 8339697 7840187
1146 8554315 8069329 7878395
1147 8215288 7769503 7911926
1148 7779839 7420512 8069772
1149 7460112 7250186 8223540
1150 7258261 7252530 8365162
1151 7107447 7191815 8483541
1152 7121635 7406099 8638657
1153 7228059 7565161 8770127
1154 7406203 7865541 8812613
1155 7661307 8272318 8980740
1156 7989567 8601946 8956578
1157 8315859 8811094 8923691
1158 8613663 9155819 8839180
1159 8908708 9239778 8738569
1160 9201523 9345643 8508723
1161 9355355 9322007 8371100
1162 9380972 9111247 8122568
1163 9215814 8880533 8057528
1164 9049615 8630449 7918007
1165 8839786 8244851 7802278
1166 8544967 7960548 7809170
1167 8238103 7736239 7852404
1168 7863182 7426186 8030914
1169 7475588 7306081 8153028
1170 7383860 7295724 8322155
1171 7278821 7357630 8457663
1172 7298959 7501806 8677280
1173 7306352 7743979 8782233
1174 7414284 7885057 8899749
1175 7641219 8366705 9038651
1176 7961011 8618994 9023301
1177 8278717 8931063 8973165
1178 8618336 9130046 8936853
1179 8921207 9384625 8772416
1180 9090481 9299520 8651272
1181 9238482 9306425 8432961
1182 9275000 9082183 8162161
1183 9155851 8822574 7979646
1184 8928823 8487439 8002155
1185 8684258 8125375 7839529
1186 8381832 7912931 7969226
1187 8200638 7755467 7925871
1188 7967101 7546792 8013017
1189 7639520 7286042 8084304
1190 7383355 7291640 8293467
1191 7295493 7299217 8427682
1192 7291136 7592308 8612368
1193 7362866 7710469 8754123
1194 7465551 7950622 8783418
1195 7738097 8355450 8995256
1196 8063122 8628704 8872488
1197 8320212 8772576 8871624
1198 8734346 9160292 8663304
1199 9025504 9244743 8603735
1200 9324711 9352142 8340034
1201 9330890 9274656 8347887
1202 9340420 9109408 8128915
1203 9174771 8885314 8056432
1204 9039739 8647285 7983980
1205 8754187 8206980 7853874
1206 8470987 7931477 7832324
1207 8198237 7675882 7873783
1208 7887564 7406403 7975619
1209 7623612 7258003 8053397
1210 7405173 7224709 8278207
1211 7167287 7267299 8420052
1212 7121988 7394912 8712418
1213 7278765 7701317 8761356
1214 7452807 7918913 8881427
1215 7644941 8331104 8967000
1216 7922228 8536210 8970868
1217 8251348 8817732 8898181
1218 8601941 9081398 8856175
1219 8954914 9244690 8585360
1220 9141592 9257079 8480747
1221 9183309 9225620 8367939
1222 9235798 9051803 8189349
1223 9174978 8872870 8050123
1224 9016684 8628663 7994323
1225 8860265 8271179 7797383
1226 8452677 7964725 7850886
1227 8103310 7565688 7888212
1228 7715270 7320078 8002465
1229 7485327 7158993 8149333
1230 7236095 7190780 8286882
1231 7180276 7205326 8428477
1232 7144259 7460925 8625384
1233 7316854 7613409 8726048
1234 7449411 7875388 8788098
1235 7681954 8283505 8959628
1236 8019069 8618168 8872761
1237 8334924 8902241 8920288
1238 8752943 9165801 8767990
1239 9023533 9279881 8639508
1240 9166269 9287578 8497873
1241 9158574 9203704 8425338
1242 9231414 9023616 8192649
1243 9148781 8814430 8025908
1244 9066889 8566693 7920295
1245 8777752 8194555 7764441
1246 8430224 7872153 7860156
1247 8073679 7671450 7942305
1248 7804312 7356206 7986319
1249 7639379 7245819 8020069
1250 7369443 7164698 8230710
1251 7102934 7166803 8418914
1252 7078830 7335624 8694186
1253 7118494 7531437 8762164
1254 7267458 7719929 8851469
1255 7574238 8207446 8909781
1256 7891838 8448179 8918420
1257 8261892 8765751 8867714
1258 8594754 9037140 8805703
1259 8930486 9194692 8556450
1260 9155132 9183378 8416589
1261 9350524 9213560 8241365
1262 9279826 9041137 8118125
1263 9200325 8831113 7989687
1264 9055466 8562219 7870791
1265 8813203 8176977 7790026
1266 8425644 7906838 7836710
1267 8131025 7580422 7883310
1268 7772813 7345224 7968765
1269 7495086 7112725 8116089
1270 7328971 7211364 8223748
1271 7180521 7210841 8423112
1272 7141901 7410714 8610165
1273 7204047 7544516 8797641
1274 7355727 7856401 8875028
1275 7587896 8207693 9039462
1276 7878406 8506368 8943128
1277 8105967 8695528 8935649
1278 8475629 8972404 8835296
1279 8841259 9191769 8707585
1280 9052584 9159875 8455218
1281 9266191 9239438 8298266
1282 9390078 9113999 8021729
1283 9247001 8937204 8034393
1284 9001171 8577019 7977534
1285 8774516 8202356 7779683
1286 8447965 7901214 7855836
1287 8246338 7696249 7834499
1288 7859566 7344077 7939470
1289 7492769 7185206 8088730
1290 7358754 7202623 8318186
1291 7219513 7206782 8354884
1292 7152144 7334914 8563444
1293 7244116 7502817 8622972
1294 7364583 7656829 8743831
1295 7564058 8094122 8850441
1296 7957225 8402380 8861730
1297 8225771 8750822 8921723
1298 8473841 9023120 8849332
1299 8828810 9145047 8659679
1300 9038403 9190550 8528289
1301 9239626 9152315 8300751
1302 9298536 8974531 8081117
1303 9161273 8811938 8045789
1304 8905145 8556663 7979447
1305 8599748 8103077 7900186
1306 8214368 7821409 7933118
1307 7938784 7463690 7968879
1308 7610674 7268966 8025241
1309 7382751 7113431 8195786
1310 7261456 7236344 8327675
1311 7085732 7135545 8488321
1312 7193058 7411957 8578710
1313 7287018 7606954 8764314
1314 7451926 7899595 8773800
1315 7554930 8167158 9009080
1316 7905951 8418510 8854564
1317 8241598 8683566 8765424
1318 8679257 9006065 8704699
1319 8992751 9279297 8659234
1320 9201003 9225826 8405552
1321 9356729 9259698 8255765
1322 9353140 8974642 8051132
1323 9140055 8734904 7960007
1324 9098869 8591474 7904293
1325 8914455 8277687 7699088
1326 8595690 7923086 7746889
1327 8251574 7623123 7773551
1328 7833012 7326816 7924417
1329 7445841 7183753 8128630
1330 7238829 7092278 8326310
1331 7123136 7197723 8421429
1332 7095320 7281586 8581379
1333 7233827 7524083 8605579
1334 7402670 7787074 8801151
1335 7633834 8234225 8919246
1336 7952089 8463273 8861073
1337 8224937 8725728 8871409
1338 8530814 8982422 8830313
1339 8852500 9156039 8673469
1340 9076719 9195206 8488103
1341 9188035 9127514 8301782
1342 9273685 9023217 8115643
1343 9120512 8760786 8041748
1344 8912473 8609445 7992170
1345 8691074 8115945 7858292
1346 8432540 7900089 7832792
1347 8119835 7549078 7876194
1348 7712118 7218406 7911480
1349 7378752 7040321 8150296
1350 7212193 7037874 8182816
1351 7084361 7029888 8405605
1352 7054759 7291278 8566738
1353 7193299 7534249 8784261
1354 7434643 7911435 8792306
1355 7733111 8315270 8958887
1356 8139236 8638367 8883787
1357 8377845 8891437 8905670
1358 8603128 9052731 8829974
1359 8845630 9210977 8677968
1360 9119191 9197107 8413169
1361 9212464 9154090 8264244
1362 9178647 8889945 8106712
1363 9106767 8768479 8010354
1364 8891977 8418602 7953517
1365 8673364 8152125 7808632
1366 8398518 7814753 7877228
1367 8151612 7582406 7801484
1368 7878863 7355945 7899877
1369 7585754 7256328 8015172
1370 7299425 7165251 8289691
1371 7228722 7168339 8327829
1372 7115970 7291574 8638114
1373 7198837 7598963 8798229
1374 7276324 7772597 8926257
1375 7620852 8223072 8998551
1376 8067414 8601285 8909547
1377 8317974 8795283 8841386
1378 8659443 9055096 8753466
1379 8973366 9186032 8599069
1380 9180181 9213007 8365651
1381 9227365 9108987 8283502
1382 9097382 8920971 8134653
1383 9153671 8765183 7997838
1384 9026498 8565862 7921579
1385 8743786 8193648 7846026
1386 8410418 7966820 7920912
1387 8163725 7615435 7919176
1388 7809952 7351417 7938759
1389 7483878 7152840 8103589
1390 7346910 7173500 8215919
1391 7214030 7155088 8353584
1392 7171628 7286357 8517961
1393 7203498 7448280 8679626
1394 7313343 7740428 8850124
1395 7466741 8166201 9055060
1396 7881648 8477882 8984711
1397 8168557 8755486 8992041
1398 8477647 9031416 8983474
1399 8873273 9340245 8770953
1400 9153123 9307658 8498407
1401 9297517 9306140 8326201
1402 9347195 9082519 8159392
1403 9226108 8901818 8001819
1404 9037052 8646173 8019811
1405 8827507 8321394 7823096
1406 8493887 7953123 7900958
1407 8160347 7684280 7881820
1408 7831694 7345516 8005011
1409 7530214 7263136 8129916
1410 7275854 7236478 8366754
1411 7240239 7288879 8442755
1412 7220897 7493715 8694131
1413 7263625 7726700 8834083
1414 7319519 7921825 8984076
1415 7627244 8323692 9105503
1416 7899973 8566761 9032043
1417 8194612 8819352 9009184
1418 8608506 9199629 8945519
1419 8883973 9374785 8866747
1420 9019363 9401561 8688600
1421 9261966 9322618 8470957
1422 9378649 9248342 8176294
1423 9152821 9003601 8232631
1424 8880992 8816802 8214362
1425 8747817 8400280 8079403
1426 8441897 8182786 8057697
1427 8171428 7863116 8153904
1428 7921074 7678124 8165382
1429 7544365 7457728 8351223
1430 7338367 7502238 8538649
1431 7251556 7568945 8735447
1432 7278009 7755703 8837882
1433 7492610 7944583 8841977
1434 7565179 8125483 8996647
1435 7657586 8518678 9252742
1436 8028640 8724982 9087886
1437 8269631 9129202 9170059
1438 8685065 9413100 9123747
1439 9011772 9613602 8932309
1440 9177636 9611526 8798199
1441 9278339 9662680 8664528
1442 9287990 9438882 8568031
1443 9193543 9252999 8379961
1444 9070011 8966549 8288246
1445 8896812 8603206 8094998
1446 8616199 8351395 8172600
1447 8409572 8127942 8055834
1448 8046904 7846053 8230354
1449 7662274 7669484 8405266
1450 7442184 7692536 8631594
1451 7345393 7647851 8697713
1452 7282250 7835131 8880849
1453 7406007 8068515 9040772
1454 7555093 8362247 9172087
1455 7878695 8769082 9259017
1456 8229629 9021769 9116405
1457 8514960 9209568 9093201
1458 8790840 9487509 8999797
1459 9146794 9610390 8885326
1460 9424554 9839243 8708618
1461 9682296 9877271 8580494
1462 9801144 9774572 8300536
1463 9683883 9398079 8159414
1464 9549752 9259188 8079506
1465 9261539 8790602 7926573
1466 8968148 8448198 7856105
1467 8560376 8134858 8030016
1468 8176021 7859552 8098872
1469 7714056 7652897 8304580
1470 7512919 7601438 8466779
1471 7327087 7596021 8646466
1472 7355957 7759334 8775259
1473 7370345 7892045 8881747
1474 7457010 8026027 8954916
1475 7732961 8529925 9092553
1476 8093879 8709773 9056005
1477 8413082 8980513 8922741
1478 8802394 9214414 8832929
1479 8988597 9415049 8729567
1480 9187412 9322688 8537899
1481 9340542 9302532 8248938
1482 9389858 9120075 8129790
1483 9286491 8995250 8035371
1484 9097908 8739672 8065744
1485 8883445 8357091 7871222
1486 8639956 8111043 7873692
1487 8214766 7712249 7884720
1488 7828041 7427450 8029256
1489 7583164 7268461 8120415
1490 7275727 7224068 8323101
1491 7173185 7211099 8432109
1492 7188737 7422008 8617412
1493 7262625 7530844 8649528
1494 7379017 7792292 8789835
1495 7555220 8185746 8944669
1496 7838190 8475819 8910593
1497 8134126 8644534 8919046
1498 8537667 9086112 8836667
1499 8911484 9249194 8711692
1500 9134470 9332438 8505078
1501 9255184 9244932 8430467
1502 9335619 9105684 8071058
1503 9236077 8845544 8059188
1504 9167314 8660193 7898916
1505 8887796 8175823 7737012
1506 8562057 7929991 7750788
1507 8210142 7612310 7817365
1508 7887854 7363381 7857667
1509 7509925 7105166 8028425
1510 7235260 7062234 8225263
1511 7086466 7100300 8418201
1512 6973976 7237146 8663266
1513 7067914 7465869 8772995
1514 7279614 7657755 8790986
1515 7590214 8171589 8978598
1516 7920079 8379985 8890944
1517 8197031 8702313 8834070
1518 8584624 8954758 8743616
1519 8884799 9172740 8542828
1520 9227215 9271981 8437642
1521 9319982 9286185 8230374
1522 9328360 8988256 8053225
1523 9201616 8779483 7927400
1524 8987906 8525968 7937687
1525 8838185 8157945 7681641
1526 8405790 7872651 7852414
1527 8065435 7520331 7835123
1528 7862217 7251356 7835282
1529 7515554 7067701 7993040
1530 7153280 7067356 8287193
1531 6997404 7049945 8455340
1532 6931741 7255643 8674306
1533 7014677 7423184 8813756
1534 7167353 7737008 8939706
1535 7438623 8119226 9041453
1536 7811515 8403916 8933537
1537 8125111 8582191 8891346
1538 8449845 8866954 8730084
1539 8885845 9121044 8607160
1540 9189588 9270570 8353028
1541 9330974 9241187 8240216
1542 9389789 9091999 8022408
1543 9184273 8820473 8015109
1544 9056787 8577945 7851926
1545 8823279 8167660 7691561
1546 8550069 7897884 7697398
1547 8258338 7610688 7766536
1548 7929896 7277257 7750161
1549 7585136 7041571 7856556
1550 7433132 6961311 7988000
1551 7304604 6954713 7995486
1552 7369836 7073642 8149326
1553 7446387 7268518 8196214
1554 7536494 7380217 8267046
1555 7705845 7761315 8348027
1556 8009134 7885706 8306514
1557 8305025 8156951 8202720
1558 8767344 8417822 8026938
1559 9113097 8707217 7900780
1560 9453463 8784384 7718244
1561 9617721 8847864 7550442
1562 9543805 8730518 7581347
1563 9441408 8689413 7529415
1564 9284363 8478112 7584623
1565 9065218 8281028 7591930
1566 8686019 8183222 7894733
1567 8312380 8083987 8112957
1568 8039175 8050642 8377345
1569 7747611 8130932 8804088
1570 7545742 8484091 9292588
1571 7504155 8804132 9735781
1572 7459791 9292845 10208026
1573 7580965 9768908 10618346
1574 7896925 10390660 10845846
1575 8297583 11043574 11190043
1576 8704528 11659503 11244070
1577 9072876 12130046 11473391
1578 9456022 12957977 11792860
1579 9874129 13573466 12097629
1580 10146656 13955839 12114969
1581 10245576 14327010 12439136
1582 10310276 14626016 12650321
1583 10292412 14894591 12953252
1584 10256120 15118587 13181405
1585 10013603 14972854 13337311
1586 9674339 14523893 13169602
1587 9448622 14202890 13089570
1588 9105429 14061970 13300256
1589 8951300 14030330 13386071
1590 8711030 13821583 13533163
1591 8496762 13723136 13519446
1592 8509240 13762527 13644419
1593 8613928 13970371 13696220
1594 8866111 14015773 13459406
1595 9097466 14336273 13508639
1596 9221916 14318792 13420675
1597 9351338 14052101 12974166
1598 9664763 13771825 12478185
1599 9862468 13521183 11944157
1600 9877116 12999106 11500473
1601 9750009 12483765 11085334
1602 9305733 11778079 10799070
1603 9138688 11135485 10364592
1604 8925933 10600498 10022798
1605 8697241 9985393 9652451
1606 8363141 9603969 9549905
1607 7982236 9108858 9513454
1608 7635117 8755455 9453534
1609 7312096 8338972 9459580
1610 7120443 8253759 9496165
1611 7069851 8141962 9486904
1612 7050388 8308855 9597004
1613 7090317 8330189 9639868
1614 7247235 8537998 9592707
1615 7535555 8857507 9689469
1616 7862020 9133437 9588604
1617 8274757 9376461 9544874
1618 8618475 9678740 9380247
1619 8879041 9741240 9263172
1620 9149089 9726108 8894122
1621 9279232 9655245 8729782
1622 9321552 9406648 8458881
1623 9257253 9285399 8358052
1624 9078620 8984944 8304369
1625 8825639 8582539 8153394
1626 8557907 8265313 8122638
1627 8294830 8060654 8116608
1628 8013404 7721136 8137799
1629 7760960 7587905 8201803
1630 7482356 7408521 8373902
1631 7269031 7440253 8507643
1632 7215880 7569941 8756245
1633 7215265 7682996 8824864
1634 7332778 7861919 8911932
1635 7539296 8337208 9054592
1636 8012305 8631763 8943393
1637 8470588 9025200 8897686
1638 8785188 9286696 8868793
1639 9065205 9389148 8632168
1640 9333907 9428735 8433493
1641 9511771 9374058 8250850
1642 9514911 9222719 8060939
1643 9361658 9032400 8047723
1644 9044891 8726913 8057894
1645 8813104 8276757 7891016
1646 8528821 8054601 7827242
1647 8367258 7776991 7865278
1648 8041909 7542120 7865926
1649 7681152 7353886 8081523
1650 7447978 7309544 8237716
1651 7133293 7129457 8459055
1652 7169951 7365088 8600457
1653 7276171 7602219 8742127
1654 7491382 7914692 8752067
1655 7724204 8295794 8985903
1656 8080596 8548850 8801251
1657 8438894 8863160 8787710
1658 8886685 9212466 8679992
1659 9215349 9455921 8623872
1660 9317022 9419940 8389223
1661 9426063 9333201 8258481
1662 9515895 9170243 8028743
1663 9382898 8998234 7975351
1664 9279305 8826694 7990408
1665 9078455 8460947 7771329
1666 8753759 8106302 7782891
1667 8403452 7888733 7813479
1668 8070718 7516570 7861398
1669 7688025 7356382 8025031
1670 7471395 7297394 8268986
1671 7388635 7313928 8283431
1672 7271261 7426075 8562911
1673 7322006 7585771 8675116
1674 7537817 7834661 8721682
1675 7784823 8271703 8818756
1676 8080293 8561602 8889795
1677 8544020 8999125 8791783
1678 8972177 9357472 8753430
1679 9308228 9555902 8579611
1680 9480141 9524296 8402213
1681 9559628 9510323 8286086
1682 9502142 9332251 8168116
1683 9350230 9033583 8086404
1684 9233616 8835452 7961892
1685 9032613 8426927 7832937
1686 8693227 8233793 7878884
1687 8445513 7916066 7888691
1688 8198083 7678209 7833903
1689 7894372 7422963 8004056
1690 7607977 7414913 8176771
1691 7415940 7422519 8405726
1692 7465209 7691062 8541631
1693 7635738 7950859 8721157
1694 7747901 8170026 8741392
1695 7996204 8509629 8911803
1696 8352764 8797576 8797849
1697 8643869 9012800 8727808
1698 8997417 9329461 8730345
1699 9181306 9501264 8622321
1700 9378714 9437989 8447832
1701 9481710 9443933 8319628
1702 9557242 9264818 8135149
1703 9443186 9110180 8021226
1704 9293081 8778647 7923215
1705 9027834 8434977 7742592
1706 8735611 8120359 7798393
1707 8507072 7948138 7792861
1708 8253735 7605612 7819865
1709 8046339 7575462 7894796
1710 7760814 7504092 8241156
1711 7566866 7603473 8377689
1712 7496507 7725354 8648333
1713 7603021 7944527 8694844
1714 7754981 8188680 8817626
1715 8012015 8585340 8975259
1716 8245614 8804143 8938981
1717 8681120 9115362 8803449
1718 9056779 9445241 8726805
1719 9390455 9641959 8651264
1720 9590167 9703135 8460326
1721 9732966 9623603 8279217
1722 9773063 9450763 7973176
1723 9741169 9214153 7933734
1724 9552275 9071485 7896923
1725 9239959 8618219 7807157
1726 8909357 8415113 7859068
1727 8571342 8101467 7942576
1728 8234835 7804705 7917094
1729 7979904 7577415 8035647
1730 7821345 7616616 8184606
1731 7632576 7668244 8433049
1732 7649068 7851944 8566600
1733 7765374 8123263 8744440
1734 7918957 8273964 8752694
1735 8113886 8659184 8921400
1736 8472625 8893295 8840700
1737 8775452 9204514 8791494
1738 9116240 9453034 8722851
1739 9415594 9619627 8566899
1740 9589228 9639238 8459094
1741 9765252 9765004 8307206
1742 9795070 9568671 8157308
1743 9667691 9439860 8113439
1744 9543853 9167694 8066791
1745 9304706 8777360 7789213
1746 9041937 8433584 7826625
1747 8764746 8289062 7853464
1748 8489232 7958817 7912919
1749 8150700 7802967 8005327
1750 7933938 7749633 8251282
1751 7880108 7864072 8372162
1752 7836683 7994073 8575965
1753 7950133 8189802 8632930
1754 8033983 8433859 8836292
1755 8257240 8870601 8978575
1756 8621837 9198892 8956366
1757 9003469 9470110 8836596
1758 9366084 9767328 8752556
1759 9644607 9867730 8632214
1760 9812681 9952464 8479186
1761 9954739 9868837 8344025
1762 10008604 9776301 8108178
1763 9895840 9530006 8053920
1764 9745246 9401332 7970315
1765 9581336 8954948 7831719
1766 9287075 8769236 7752708
1767 8982226 8445455 7873559
1768 8783067 8243059 7833119
1769 8510953 8130727 8064635
1770 8215514 8044001 8205944
1771 8112510 8040787 8384130
1772 8074849 8234659 8509542
1773 8127327 8497262 8724526
1774 8287607 8741981 8839080
1775 8408450 9186590 9114851
1776 8750499 9383784 9020651
1777 9010428 9606812 8961835
1778 9420923 9952324 8880195
1779 9819640 10225453 8716171
1780 9963671 10108456 8569046
1781 10111478 10127570 8339086
1782 10145828 9921717 8184212
1783 10051614 9765087 8089228
1784 9884146 9548472 8081078
1785 9791849 9212536 7772136
1786 9498609 8892696 7837297
1787 9164880 8651605 7852181
1788 8759412 8353270 8029056
1789 8495823 8248693 8150149
1790 8285099 8221770 8333418
1791 8242629 8279391 8452059
1792 8106841 8403868 8679120
1793 8183175 8596663 8790837
1794 8304789 8802919 8828132
1795 8533410 9207529 9036763
1796 8792734 9534468 9064929
1797 9068261 9751544 9036735
1798 9521373 10116908 8929449
1799 9874797 10245002 8820618
1800 10092179 10341266 8565165
1801 10186616 10320295 8519232
1802 10225484 10242463 8310808
1803 10143299 9994036 8293159
1804 9990301 9830538 8165641
1805 9786906 9431376 8049513
1806 9444366 9135354 8081431
1807 9131710 8877510 8114577
1808 8837993 8537828 8084489
1809 8451404 8339617 8305991
1810 8217078 8315736 8526155
1811 8129233 8399184 8662954
1812 8119004 8590330 8904757
1813 8171195 8825854 9039111
1814 8239897 8986149 9132494
1815 8404604 9390970 9274195
1816 8744172 9598916 9245554
1817 9043410 9889874 9187140
1818 9410941 10112484 9125717
1819 9688929 10299206 8904992
1820 9934166 10325525 8755135
1821 10011679 10338332 8619834
1822 10102204 10189317 8438915
1823 10153743 10042676 8207653
1824 9997775 9828140 8223450
1825 9725243 9432500 8086533
1826 9348824 9128065 8214603
1827 9061078 8878668 8139515
1828 8648422 8494824 8276465
1829 8288970 8313519 8412966
1830 8017533 8207581 8595026
1831 7913153 8194269 8738067
1832 7861499 8377246 8904161
1833 7958775 8537210 8996693
1834 8073988 8753442 9004956
1835 8306034 9094110 9208053
1836 8680994 9475150 9161080
1837 8997535 9723069 9140562
1838 9269382 9973966 8991664
1839 9558699 10092970 8950874
1840 9706027 10143441 8728507
1841 9737355 10030014 8675446
1842 9762229 9870001 8445539
1843 9717366 9675260 8361806
1844 9531225 9369390 8179348
1845 9354944 8886104 7976996
1846 9074451 8671593 7988134
1847 8662854 8380909 8110258
1848 8330703 8055194 8133821
1849 7983918 7831931 8280878
1850 7726799 7718978 8422929
1851 7543206 7753820 8654560
1852 7452780 7907402 8874731
1853 7423695 8178723 9101277
1854 7611136 8328170 9117267
1855 7838408 8710583 9167445
1856 8193396 8883556 9047091
1857 8494448 9103512 8940346
1858 8811813 9370355 8987089
1859 9112121 9648524 8864050
1860 9350276 9610603 8667597
1861 9490162 9630395 8456866
1862 9492611 9445860 8346615
1863 9445979 9272897 8167213
1864 9226110 8946395 8115570
1865 8920039 8452514 7895553
1866 8596401 8178229 7993330
1867 8419994 8058190 7961389
1868 8107634 7834348 8137208
1869 7765100 7621932 8260712
1870 7577019 7597513 8417901
1871 7443044 7561271 8547412
1872 7379315 7672498 8699517
1873 7447024 7894402 8869301
1874 7543859 8068868 8875667
1875 7744352 8344680 9089902
1876 7999967 8687012 8999340
1877 8311441 8954056 9054328
1878 8534710 9222373 8973803
1879 8833602 9276918 8879545
1880 9134726 9389535 8585624
1881 9382338 9487105 8489771
1882 9513376 9329451 8197836
1883 9447983 9142792 8069174
1884 9305912 8916009 7991501
1885 9021470 8473987 7846571
1886 8661691 8117255 7861650
1887 8360035 7892166 7948761
1888 8002088 7606580 8021257
1889 7650066 7444566 8191310
1890 7436791 7368493 8363518
1891 7283881 7441829 8526311
1892 7249805 7608888 8758634
1893 7344704 7834412 8872481
1894 7433364 8006122 8993930
1895 7659998 8451160 9106925
1896 7949011 8574332 9020893
1897 8245692 8923592 8974847
1898 8579917 9163023 9021801
1899 8844762 9345267 8838125
1900 9186032 9440249 8689210
1901 9191089 9398393 8523885
1902 9294537 9205246 8258864
1903 9346025 9050734 8105479
1904 9181406 8798395 8058542
1905 9051103 8499823 7816678
1906 8711706 8187003 7914309
1907 8408449 7910636 7911839
1908 8018033 7629566 7990137
1909 7654821 7402662 8148905
1910 7385269 7360025 8328821
1911 7098466 7296758 8611467
1912 7088611 7527473 8790686
1913 7258585 7729288 8848261
1914 7411352 8031019 8944381
1915 7612871 8359040 9123480
1916 7961897 8702565 9055805
1917 8243713 8950166 9082630
1918 8632871 9310305 8964287
1919 8969687 9393918 8868761
1920 9205821 9474950 8599251
1921 9294630 9436253 8517282
1922 9396223 9292312 8248369
1923 9244067 9074228 8242761
1924 9036263 8803609 8159509
1925 8830020 8422964 7967671
1926 8546752 8159227 7996680
1927 8287412 7901033 8061854
1928 7981934 7652378 8026243
1929 7642615 7504852 8227478
1930 7457245 7392280 8391254
1931 7315743 7477465 8540959
1932 7319128 7626006 8752443
1933 7376096 7852132 8819640
1934 7540152 8083831 9020010
1935 7707684 8500697 9106568
1936 7995584 8694428 9121992
1937 8349005 9076351 9019209
1938 8754811 9324994 8985321
1939 9024175 9537753 8798315
1940 9345325 9538752 8633097
1941 9473437 9588615 8492967
1942 9333863 9344042 8405343
1943 9227180 9145833 8237777
1944 9125215 8879988 8183890
1945 8947241 8501245 7969966
1946 8688421 8269413 7985270
1947 8464518 8030090 7989089
1948 8018370 7727095 8103257
1949 7677442 7468819 8193216
1950 7496544 7424870 8291910
1951 7395576 7460338 8485800
1952 7339722 7745201 8712901
1953 7423137 7860268 8882046
1954 7532741 8041487 8833286
1955 7773659 8375924 8966201
1956 8142370 8715060 8890716
1957 8379532 8960429 9008408
1958 8731011 9354304 8979404
1959 8987456 9504176 8898572
1960 9175781 9550442 8675603
1961 9294895 9488326 8573154
1962 9366529 9380136 8336586
1963 9299698 9099051 8209469
1964 9188836 8856050 8065714
1965 9089633 8469814 7816240
1966 8723448 8172436 7862077
1967 8303426 7879150 7951950
1968 7996799 7637316 8031214
1969 7669483 7489194 8236217
1970 7404511 7427081 8445637
1971 7243459 7398859 8540401
1972 7242893 7576598 8750765
1973 7332437 7826352 8813920
1974 7543421 8020511 8884023
1975 7730135 8470777 9053002
1976 8050994 8701335 9033075
1977 8399264 9051505 8955996
1978 8750364 9281934 8928505
1979 9037784 9514717 8771647
1980 9205156 9483626 8653082
1981 9270725 9427414 8501083
1982 9317631 9218935 8311398
1983 9201312 9027935 8161769
1984 9214405 8873790 8038877
1985 9001072 8448056 7871357
1986 8687605 8199113 7919304
1987 8344557 7852613 7931168
1988 7926891 7530056 8026407
1989 7649894 7357149 8145578
1990 7437950 7377902 8363212
1991 7197742 7305892 8551293
1992 7263825 7560106 8626672
1993 7421478 7737405 8736886
1994 7452119 8020033 8850149
1995 7687262 8337813 9051516
1996 8032634 8680527 9000195
1997 8393806 8926253 8935288
1998 8774367 9296296 8811070
1999 9073643 9432438 8743514
2000 9239126 9424269 8506216
2001 9425121 9392971 8386180
2002 9442345 9275954 8173375
2003 9304967 9058905 8119464
2004 9156530 8869531 8085691
2005 8970789 8498576 7911394
2006 8599700 8136714 7900498
2007 8239870 7807144 7956087
2008 7972291 7578933 7987759
2009 7706110 7475868 8115721
2010 7498114 7391930 8361095
2011 7337674 7465249 8503972
2012 7323845 7551472 8660933
2013 7449391 7835148 8738947
2014 7519801 7999589 8847083
2015 7766064 8376615 8933722
2016 8111506 8557320 8864034
2017 8302120 8838224 8847022
2018 8664694 9121683 8878459
2019 8982110 9384605 8671585
2020 9253716 9440542 8604268
2021 9359775 9421249 8360513
2022 9368402 9224623 8260019
2023 9238401 9059292 8170438
2024 9141288 8849452 8090244
2025 9000885 8419724 7825215
2026 8632565 8125587 7889346
2027 8313058 7769404 7956479
2028 7914290 7522851 7961465
2029 7531919 7314544 8192513
2030 7444955 7407734 8335119
2031 7291222 7340422 8485869
2032 7160495 7519202 8712876
2033 7325552 7668238 8805369
2034 7523202 7991000 8820659
2035 7721389 8367862 9060855
2036 7996429 8599554 8938313
2037 8361042 8891612 8912036
2038 8675169 9208085 8809885
2039 8970586 9301193 8755814
2040 9120314 9318729 8541483
2041 9280723 9346353 8435348
2042 9428713 9229707 8200112
2043 9312029 9039395 8107503
2044 9185608 8779847 7948090
2045 8965337 8404995 7811719
2046 8687795 8136466 7846834
2047 8370687 7861465 7859302
2048 8127681 7616122 7909548
2049 7713275 7471072 8118926
2050 7489022 7407731 8388047
2051 7224812 7420782 8557417
2052 7246101 7523663 8758510
2053 7378910 7874377 8790520
2054 7522335 7992229 8906773
2055 7666662 8390434 9019278
2056 7887124 8509481 9008879
2057 8268764 8845919 8933526
2058 8637069 9104063 8879868
2059 8904664 9323680 8736433
2060 9203708 9409189 8568329
2061 9353596 9322842 8308990
2062 9312665 9121479 8184834
2063 9153703 8859137 8146258
2064 8965960 8673211 8114851
2065 8804989 8328811 7925132
2066 8533289 8137955 8003645
2067 8322782 7864484 7999435
2068 7946604 7603071 8028362
2069 7645003 7389801 8146931
2070 7449031 7372346 8252353
2071 7345769 7331178 8418844
2072 7269609 7548110 8600290
2073 7321587 7702398 8770872
2074 7512665 7985454 8800897
2075 7694095 8318151 9025270
2076 7982548 8601897 8981440
2077 8175614 8790639 9029795
2078 8569881 9169758 8901856
2079 8921723 9302634 8740476
2080 9191037 9326980 8507985
2081 9321943 9366425 8445296
2082 9340758 9173784 8184861
2083 9244527 8919373 8117697
2084 9054947 8689851 8028977
2085 8838756 8364640 7877813
2086 8527023 8023685 7936140
2087 8216067 7786121 7942252
2088 7947025 7511806 7983972
2089 7535883 7334254 8170792
2090 7196078 7216335 8461009
2091 7094750 7309699 8528670
2092 7241293 7478117 8691273
2093 7323305 7722156 8754377
2094 7463330 7868192 8847313
2095 7673768 8332106 8980286
2096 7992262 8577623 8947820
2097 8255624 8832096 8909709
2098 8609549 9159112 8894595
2099 8965662 9314170 8673570
2100 9112726 9331031 8525416
2101 9279482 9323633 8358484
2102 9339513 9212862 8253742
2103 9272342 8994145 8160314
2104 9042997 8719136 8045869
2105 8878656 8351398 7879021
2106 8564192 8122362 7950140
2107 8228961 7740744 7991237
2108 7823676 7464734 7961558
2109 7594231 7236424 8132673
2110 7398072 7287220 8238028
2111 7308555 7279321 8415554
2112 7179161 7413345 8602213
2113 7254953 7583065 8704573
2114 7447772 7897574 8776133
2115 7561733 8200392 9047449
2116 7880032 8539157 8966486
2117 8248685 8833502 8986467
2118 8659281 9198695 8854569
2119 8939746 9330221 8750547
2120 9111528 9333966 8549854
2121 9320829 9330052 8370876
2122 9325495 9088816 8121782
2123 9270050 8964397 8081036
2124 9121646 8725411 8073770
2125 8810835 8363080 7924056
2126 8500199 8035544 7978591
2127 8191471 7819547 7984170
2128 7891171 7511621 8057574
2129 7571077 7299991 8092964
2130 7362485 7249683 8343118
2131 7232834 7246366 8371667
2132 7167398 7346411 8612845
2133 7331798 7680869 8685557
2134 7447807 7932869 8868615
2135 7631152 8355512 9025761
2136 7899372 8492093 9009524
2137 8207550 8786968 8925870
2138 8662754 9134025 8850508
2139 8977865 9260490 8615536
2140 9228499 9350915 8480742
2141 9375646 9392207 8393407
2142 9329068 9203825 8246826
2143 9275772 8974485 8086052
2144 9038473 8716425 7990656
2145 8943534 8302257 7788262
2146 8633294 8133689 7871467
2147 8296080 7805494 7980229
2148 7888117 7521270 7984992
2149 7596713 7281206 8128343
2150 7359805 7209167 8243587
2151 7203874 7200585 8439664
2152 7192213 7452760 8637919
2153 7191167 7579826 8849209
2154 7255074 7776802 8879434
2155 7498894 8202328 9060051
2156 7969965 8611584 8971749
2157 8279312 8862649 8899212
2158 8675562 9141686 8837719
2159 8889669 9342515 8788184
2160 9179643 9426529 8558162
2161 9386101 9486997 8396457
2162 9382426 9192066 8202642
2163 9258360 9029333 8114104
2164 9095431 8720491 8020818
2165 8899160 8402117 7841297
2166 8618234 8112477 7906896
2167 8332225 7838210 7891480
2168 7970176 7477606 7928420
2169 7643507 7268206 7990798
2170 7342626 7159086 8289785
2171 7253515 7286443 8401343
2172 7320164 7489181 8607321
2173 7357381 7698827 8685705
2174 7490152 7908043 8849160
2175 7604294 8244853 9008854
2176 7862754 8429930 8924199
2177 8240474 8680859 8836542
2178 8616007 9044925 8771027
2179 8906355 9205632 8636268
2180 9098202 9258177 8553089
2181 9245491 9296661 8386192
2182 9303043 9129766 8146528
2183 9293072 8899893 8018751
2184 9176281 8740231 7880150
2185 8984325 8323120 7798359
2186 8585467 8071158 7873104
2187 8297842 7785067 7900633
2188 8011147 7570881 7893161
2189 7643912 7329010 8100708
2190 7478264 7335772 8238007
2191 7186546 7226871 8481468
2192 7120957 7384950 8635085
2193 7166839 7603284 8831566
2194 7365249 7836318 8854944
2195 7547945 8205449 9009380
2196 7963816 8524742 8918773
2197 8308546 8843378 8911810
2198 8710768 9150469 8803173
2199 8940980 9309734 8691248
2200 9129041 9289884 8555549
2201 9316693 9402658 8433186
2202 9370101 9219905 8248240
2203 9314373 9020065 8057798
2204 9203154 8749676 7997660
2205 8870538 8365268 7836883
2206 8582463 8077829 7936302
2207 8297232 7869489 7899659
2208 7971140 7451848 7906799
2209 7693209 7318787 8013563
2210 7428280 7262518 8309032
2211 7214400 7238384 8423413
2212 7206608 7464866 8677737
2213 7244611 7599748 8754631
2214 7292905 7849227 8885730
2215 7490328 8195533 9021840
2216 7917243 8480671 8958184
2217 8300728 8817812 8916508
2218 8590194 9119222 8874832
2219 8953532 9284520 8680025
2220 9236788 9375978 8460579
2221 9433887 9346854 8300609
2222 9471779 9243142 8125307
2223 9363871 8977004 8022783
2224 9220218 8804793 7920520
2225 9063442 8435579 7763415
2226 8762837 8116502 7728193
2227 8433800 7770615 7761769
2228 8097970 7586108 7869193
2229 7629473 7279084 8043362
2230 7306289 7208365 8213058
2231 7225650 7237203 8446573
2232 7236674 7439440 8585407
2233 7249292 7601821 8741783
2234 7449699 7869351 8762026
2235 7656337 8286323 9038570
2236 7933543 8630930 9037036
2237 8100677 8873608 9086671
2238 8519701 9081838 8951434
2239 8931968 9297559 8725155
2240 9214164 9274348 8499686
2241 9314944 9372108 8376917
2242 9355426 9200508 8251284
2243 9279277 9014703 8078057
2244 9131535 8692250 8016750
2245 8905091 8399894 7830322
2246 8558349 8079443 7979163
2247 8325897 7904463 7923882
2248 8081100 7653161 7995906
2249 7747538 7452532 8094386
2250 7390869 7400066 8410342
2251 7162001 7293914 8513982
2252 7172719 7491396 8742376
2253 7285311 7777552 8863086
2254 7429827 8073902 9010151
2255 7680347 8437266 9109063
2256 8052363 8728835 9028767
2257 8343115 8970818 8996710
2258 8604620 9272714 8966329
2259 8914065 9440770 8917518
2260 9171751 9560559 8720625
2261 9317115 9579587 8625427
2262 9445898 9463060 8315025
2263 9356329 9175133 8232859
2264 9108606 8978306 8232367
2265 8817868 8485012 8100167
2266 8560111 8277267 8069560
2267 8284645 7958731 8098002
2268 7915355 7696543 8171368
2269 7603199 7527834 8330509
2270 7425153 7558548 8469176
2271 7324455 7561248 8642585
2272 7377332 7765403 8774010
2273 7423253 8032003 8997848
2274 7499066 8193416 9081344
2275 7681138 8631371 9336473
2276 8046081 8847350 9233728
2277 8332080 9139404 9158673
2278 8826824 9553896 9084724
2279 9230488 9751502 8807671
2280 9336991 9670331 8749610
2281 9363369 9681009 8633175
2282 9382808 9445613 8480842
2283 9462234 9398941 8248681
2284 9321444 9191271 8261630
2285 9119845 8836155 8091379
2286 8661102 8494438 8266776
2287 8380505 8269064 8230015
2288 8077772 8021083 8354907
2289 7775320 7818009 8486495
2290 7635717 7870593 8606852
2291 7561167 7829080 8717495
2292 7483765 7986613 8894395
2293 7597855 8127429 8935365
2294 7739559 8381692 9006471
2295 7981128 8779346 9163465
2296 8268652 9068308 9101389
2297 8565866 9228363 9093894
2298 8942029 9668648 9030297
2299 9218085 9792369 8979102
2300 9483406 9879203 8726713
2301 9593924 9783363 8538123
2302 9693358 9630170 8256343
2303 9695530 9444717 8149287
2304 9570691 9234840 7997805
2305 9239831 8761351 7952242
2306 8869668 8515797 8020192
2307 8559701 8233515 8115249
2308 8242782 7957441 8094671
2309 7785743 7609791 8270441
2310 7524887 7556437 8425111
2311 7323730 7511349 8589060
2312 7292575 7622442 8708277
2313 7344353 7828956 8866225
2314 7488549 8076713 8947751
2315 7689623 8475095 9126460
2316 8011935 8682474 9055987
2317 8408295 9065663 8974439
2318 8828948 9398719 8967670
2319 9094519 9527431 8788313
2320 9289054 9445537 8559887
2321 9498091 9498444 8287056
2322 9491792 9297342 8206298
2323 9254185 9079353 8134984
2324 9155225 8867523 8081359
2325 8972071 8485622 7852016
2326 8562936 8118948 7948516
2327 8213509 7799096 7982107
2328 7781978 7463574 8072474
2329 7537354 7235058 8089768
2330 7404185 7246478 8255729
2331 7274515 7219219 8350902
2332 7194871 7437336 8620005
2333 7226726 7579954 8797888
2334 7408636 7876210 8831239
2335 7622797 8157402 8941203
2336 7865243 8531001 8965812
2337 8131140 8669379 8916712
2338 8555575 8997535 8791961
2339 8906380 9238922 8715792
2340 9214767 9401233 8503779
2341 9382866 9366468 8347406
2342 9392675 9192547 8160094
2343 9233230 8985659 8128739
2344 9040892 8651419 7952925
2345 8859901 8290104 7811609
2346 8609783 8055041 7786810
2347 8285539 7768121 7887257
2348 7941811 7445359 7873761
2349 7547489 7275883 8104523
2350 7280762 7134876 8282894
2351 7228792 7146488 8305810
2352 7156025 7283739 8539365
2353 7226867 7493210 8634901
2354 7377383 7716818 8748832
2355 7569223 8145360 8961459
2356 7869930 8432084 8893763
2357 8137946 8620813 8815617
2358 8463742 8868563 8812721
2359 8779959 9064844 8617052
2360 8939500 9065658 8485791
2361 9069110 9053165 8329295
2362 9209907 8927094 8161501
2363 9274346 8912381 7942610
2364 9085118 8584499 7871930
2365 8775944 8104474 7675604
2366 8455816 7884223 7805088
2367 8148865 7568618 7838394
2368 7815581 7269283 7918300
2369 7533099 7110010 8021688
2370 7348277 7203290 8269148
2371 7209918 7203721 8458980
2372 7145239 7413583 8647101
2373 7318788 7631998 8769880
2374 7341633 7833760 8834491
2375 7529416 8108002 8989797
2376 7941862 8514083 8882601
2377 8330809 8807033 8901348
2378 8631807 9095994 8800982
2379 8875260 9191532 8765086
2380 9044320 9205905 8470902
2381 9163295 9106467 8332086
2382 9237576 8900932 8047888
2383 9127829 8745474 8032017
2384 9001594 8545674 7874757
2385 8909419 8230765 7717209
2386 8486131 7861986 7782676
2387 8167810 7519558 7734637
2388 8018163 7210057 7632646
2389 7810805 7110821 7660935
2390 7561067 6919022 7776953
2391 7480832 6840558 7698031
2392 7459325 6955941 7896029
2393 7522441 7160230 7950962
2394 7774162 7373176 8014437
2395 7972037 7766698 8135078
2396 8203087 7978900 8187696
2397 8513314 8330248 8098143
2398 8901840 8653040 8135049
2399 9181326 8998212 8161209
2400 9371733 9058459 8086340
2401 9511834 9170291 7975151
2402 9504829 9151011 8067175
2403 9364593 9120303 8126391
2404 9128275 8983358 8235268
2405 8960188 8826074 8216335
2406 8698231 8803446 8534371
2407 8462921 8810155 8788484
2408 8222493 8936456 9100221
2409 7856891 9022141 9613270
2410 7644107 9402260 10123497
2411 7685676 9771002 10468758
2412 7841376 10347317 10847182
2413 8076439 10840539 11117959
2414 8308378 11415620 11454108
2415 8560268 12254235 12049890
2416 8985643 13038789 12328873
2417 9425524 13589740 12574545
2418 9733253 14328941 12881429
2419 9998207 14935002 13274101
2420 10311379 15390977 13409879
2421 10539194 15846790 13636754
2422 10537187 15776659 13584534
2423 10437099 15458721 13367947
2424 10452268 15278543 13160584
2425 10330421 15024730 13076015
2426 10063767 14859327 13124461
2427 9784958 14515240 13075284
2428 9426789 14023960 12980434
2429 9093036 13871763 13101163
2430 8821971 13659196 13170598
2431 8702988 13394305 13037546
2432 8485599 13269186 13199291
2433 8454516 13204285 13024260
2434 8562599 12946570 12756794
2435 8606777 12826943 12527788
2436 8790275 12572323 12160687
2437 8880217 12326312 11755687
2438 8910424 12119854 11556820
2439 8835741 11850938 11321928
2440 9006586 11527212 10845865
2441 9166198 11249241 10388495
2442 9152085 10868372 10075750
2443 8967119 10455936 9817383
2444 8846533 10111414 9654847
2445 8697832 9609332 9280885
2446 8311290 9153641 9183353
2447 8075892 8757983 9085158
2448 7853710 8450100 8966493
2449 7627214 8220710 9014958
2450 7425803 8192102 9103515
2451 7307458 8026170 9173851
2452 7277166 8106775 9164447
2453 7336116 8187731 9284909
2454 7496402 8346263 9164565
2455 7703825 8682737 9398269
2456 8015838 8953641 9309656
2457 8104841 9125007 9386064
2458 8440201 9406806 9227008
2459 8819900 9547635 9123348
2460 9045391 9610237 8920741
2461 9224240 9628159 8792605
2462 9330658 9413017 8398283
2463 9317660 9213468 8292138
2464 9113677 8926276 8185971
2465 8888804 8538117 8036892
2466 8473384 8197036 8123801
2467 8117271 7852190 8089434
2468 7921166 7586276 8107459
2469 7750180 7531286 8152523
2470 7486746 7409656 8376390
2471 7391774 7488055 8490431
2472 7276536 7585990 8768744
2473 7339682 7863395 8830387
2474 7439597 8013075 8982600
2475 7746651 8502284 9083421
2476 8001151 8660363 9070686
2477 8224446 8931601 9025080
2478 8555277 9174702 9035836
2479 8957881 9375949 8748745
2480 9162412 9334676 8572046
2481 9357528 9422841 8406878
2482 9496599 9260334 8140139
2483 9419237 8997160 7984085
2484 9243320 8746093 7854588
2485 9060844 8375863 7684018
2486 8779335 8170417 7762783
2487 8568611 7911385 7753260
2488 8110201 7590278 7892664
2489 7701411 7317525 8064557
2490 7411552 7238528 8199877
2491 7351220 7234565 8321774
2492 7373879 7544097 8559579
2493 7373971 7743299 8763384
2494 7497090 7928682 8770631
2495 7702252 8208412 8911038
2496 7996597 8557974 8874242
2497 8303615 8758496 8843516
2498 8740173 9151292 8676041
2499 9095975 9370700 8632723
2500 9202472 9399894 8531186
2501 9365588 9354926 8363273
2502 9403745 9216955 8143633
2503 9399833 9057845 8072646
2504 9340856 8801503 7846118
2505 9181364 8462296 7641810
2506 8784208 8125178 7763311
2507 8407403 7880155 7802231
2508 8085802 7562544 7891998
2509 7768384 7383340 8024139
2510 7427746 7254542 8235774
2511 7319807 7351012 8412669
2512 7306723 7546137 8618571
2513 7464784 7846045 8724079
2514 7691936 8045059 8819174
2515 7875916 8396217 8883041
2516 8215415 8679591 8842481
2517 8520127 8973058 8778718
2518 8793506 9209402 8794386
2519 9123788 9430026 8654126
2520 9371097 9479794 8522554
2521 9467788 9447651 8320863
2522 9557261 9265606 8079465
2523 9465042 9091500 7967669
2524 9369212 8885580 7890835
2525 9140507 8427912 7728366
2526 8719870 8133899 7794061
2527 8466041 7803232 7805559
2528 8181206 7628393 7807245
2529 7810607 7367848 7985363
2530 7612052 7436855 8179598
2531 7386450 7400287 8465628
2532 7317066 7562974 8570990
2533 7488974 7768078 8679263
2534 7743063 8171914 8782349
2535 7773344 8383922 9008774
2536 8171536 8739303 8863075
2537 8534487 9000843 8821765
2538 8912532 9296400 8691670
2539 9231376 9428641 8559840
2540 9489428 9486824 8369470
2541 9574962 9509112 8299442
2542 9650598 9324434 8073079
2543 9526964 9128593 7994023
2544 9352136 8878488 7926803
2545 9246059 8523427 7663220
2546 8930087 8229661 7705741
2547 8579270 7970987 7795825
2548 8277844 7730261 7928950
2549 8068909 7678220 7972622
2550 7725676 7473493 8167936
2551 7516033 7404336 8268025
2552 7495274 7584793 8498847
2553 7558682 7799037 8612950
2554 7722252 8012588 8719090
2555 7953837 8495745 8865455
2556 8260048 8778658 8883275
2557 8660860 9083280 8764420
2558 8948148 9359867 8772998
2559 9218724 9538937 8670087
2560 9449284 9539765 8496687
2561 9645232 9518196 8233243
2562 9708330 9383271 8029507
2563 9660573 9133981 7891447
2564 9551200 8999046 7854234
2565 9256830 8613258 7773137
2566 8927779 8408379 7839198
2567 8721389 8113073 7831282
2568 8487612 7913629 7827434
2569 8246381 7762247 7994088
2570 7861554 7619503 8149947
2571 7656782 7541630 8390002
2572 7617553 7880960 8599925
2573 7665587 7992450 8761600
2574 7909358 8251034 8692023
2575 8035869 8576798 8957335
2576 8364530 8935361 8903776
2577 8737176 9193169 8901175
2578 9033806 9530210 8850224
2579 9356509 9724772 8687826
2580 9710321 9768254 8419773
2581 9857137 9829536 8289479
2582 9892315 9655724 8137327
2583 9803481 9490346 8058255
2584 9657993 9221730 8015500
2585 9531084 8847089 7694498
2586 9163011 8466932 7746585
2587 8885758 8314756 7785791
2588 8550066 7984643 7878298
2589 8254850 7841071 7982825
2590 7997375 7787285 8260371
2591 7796275 7786451 8391781
2592 7727456 7902577 8650242
2593 7712874 8090716 8721584
2594 7935337 8408158 8851365
2595 8336288 8880927 8905553
2596 8611051 9087095 8857880
2597 8889057 9384635 8844077
2598 9140150 9711630 8896472
2599 9603335 9890401 8689144
2600 9819955 9934549 8456952
2601 10016171 9971424 8304309
2602 10057212 9839609 8112462
2603 9979502 9636277 8016030
2604 9833680 9429442 7931901
2605 9625457 9018166 7813545
2606 9219364 8746837 7881928
2607 8890895 8379967 7939843
2608 8540787 8130213 7943848
2609 8252370 7926814 8126082
2610 8165145 7995297 8228586
2611 7965663 7881307 8406850
2612 7982575 8165329 8571167
2613 8072209 8411497 8741977
2614 8213686 8649339 8810871
2615 8351136 9010633 9017813
2616 8662061 9243082 8914925
2617 9013516 9531303 8878292
2618 9437319 9894590 8775198
2619 9794897 10121823 8670703
2620 9974279 10135118 8525286
2621 10130367 10253331 8403942
2622 10250888 10098641 8236065
2623 10095347 9872732 8046636
2624 9993986 9587386 8021358
2625 9730304 9191025 7808344
2626 9391801 8918196 7893175
2627 9134553 8660831 7898878
2628 8826786 8399625 8010458
2629 8529959 8264612 8066013
2630 8257759 8108610 8302685
2631 8127834 8125030 8394417
2632 8207635 8457486 8671787
2633 8301109 8631928 8748562
2634 8433659 8883069 8882211
2635 8529259 9223838 9039702
2636 8797381 9527850 9069180
2637 9067844 9788982 9094358
2638 9335003 10073640 9108708
2639 9757438 10297081 8955050
2640 10030929 10453929 8741358
2641 10184635 10443964 8658212
2642 10187111 10265034 8396834
2643 10102906 9988124 8303474
2644 9911904 9785774 8228651
2645 9783123 9401035 7971322
2646 9490180 9096202 7990999
2647 9149906 8846088 8049463
2648 8920870 8622542 8061436
2649 8599267 8448725 8313781
2650 8287881 8384764 8522099
2651 8067429 8341122 8685321
2652 8053969 8535784 8841363
2653 8093034 8750236 8982037
2654 8263253 9032777 9146083
2655 8424594 9372072 9357040
2656 8762324 9593793 9262976
2657 9004899 9924180 9229149
2658 9337035 10171416 9188855
2659 9651017 10337692 9002345
2660 9878035 10306425 8841043
2661 9989823 10435304 8760356
2662 10085736 10211706 8524344
2663 10003309 10043454 8355199
2664 9850048 9769180 8342908
2665 9665299 9412130 8107225
2666 9304907 9056349 8170227
2667 8937424 8745669 8160683
2668 8646354 8455405 8240241
2669 8295500 8314352 8389201
2670 7910612 8178796 8673367
2671 7718751 8121065 8776225
2672 7774683 8393960 9019714
2673 7863401 8568353 9089476
2674 7986401 8773316 9164979
2675 8163597 9054118 9265318
2676 8478907 9254235 9137857
2677 8681894 9468751 9156570
2678 8962131 9755187 9140089
2679 9257529 9870510 8980277
2680 9533456 9938807 8747101
2681 9692586 9908806 8635868
2682 9694867 9813777 8433831
2683 9637755 9586365 8377007
2684 9461132 9369919 8264639
2685 9293275 8977858 8122725
2686 8980490 8724514 8140635
2687 8535512 8375974 8204932
2688 8172118 7994910 8228445
2689 7928552 7885332 8350746
2690 7751012 7824822 8453302
2691 7503218 7761146 8657029
2692 7408080 7920014 8924518
2693 7402536 8116621 9049813
2694 7622035 8262919 9025695
2695 7826849 8613462 9132572
2696 8121500 8864428 9089711
2697 8406530 9137235 9064923
2698 8741442 9359240 9005362
2699 9048619 9582745 8858100
2700 9236499 9633108 8791985
2701 9440247 9658585 8551272
2702 9571484 9463893 8354128
2703 9414365 9252956 8177342
2704 9154016 8926093 8185277
2705 8827230 8458835 7991034
2706 8564582 8209708 8018076
2707 8316830 7949748 8012848
2708 7979594 7715992 8147067
2709 7756229 7568997 8223164
2710 7497859 7490755 8398691
2711 7289493 7469597 8571158
2712 7246235 7659450 8799458
2713 7341616 7782383 8838548
2714 7477110 8025150 8916369
2715 7669368 8371125 9093095
2716 7981237 8690749 9072908
2717 8240688 8906624 9041924
2718 8608916 9225974 8922594
2719 8936182 9389349 8876248
2720 9066130 9484591 8713421
2721 9203171 9532616 8708450
2722 9292891 9360087 8389473
2723 9189914 9184662 8380272
2724 9051849 8987337 8259121
2725 8905695 8578973 8076706
2726 8663188 8299376 7984924
2727 8304345 7965654 8090368
2728 7959479 7610741 8085637
2729 7559295 7461702 8307354
2730 7312550 7428088 8479957
2731 7108737 7339898 8618486
2732 7075328 7457737 8778974
2733 7210722 7701852 8881079
2734 7357889 7891064 8949824
2735 7575080 8309860 9095820
2736 8058324 8686011 9042978
2737 8293321 9031455 9040498
2738 8601325 9272345 9055595
2739 8875829 9471804 8877484
2740 9119903 9462289 8702545
2741 9326372 9510391 8534297
2742 9327862 9302969 8338294
2743 9288298 9131845 8208470
2744 9142993 8915571 8198015
2745 8923502 8530975 7969986
2746 8480429 8173775 8091158
2747 8237868 7908464 8042367
2748 7867808 7547928 8094530
2749 7681603 7453871 8223813
2750 7405375 7427478 8394836
2751 7227910 7334270 8548167
2752 7173160 7552579 8768516
2753 7184376 7730391 8957101
2754 7329244 8042036 9042133
2755 7479853 8277884 9181647
2756 7958159 8674341 9068842
2757 8258288 8963622 9089545
2758 8497544 9241811 9025880
2759 8849969 9412533 8955537
2760 9173188 9571724 8711969
2761 9289077 9527974 8629492
2762 9311204 9374327 8380568
2763 9189912 9097983 8258078
2764 9072438 8872653 8149149
2765 8831538 8439656 7995847
2766 8541183 8279804 8065687
2767 8298924 8005514 8118317
2768 7956549 7638913 8114838
2769 7515512 7439439 8322817
2770 7316076 7437819 8527038
2771 7217886 7417072 8611753
2772 7196004 7588467 8845058
2773 7208419 7834232 8956792
2774 7294063 7993022 9146864
2775 7474634 8429398 9263043
2776 7917904 8621289 9149666
2777 8262898 8979300 9004187
2778 8682561 9303104 9037656
2779 8962452 9534356 8827224
2780 9236698 9553956 8673009
2781 9345416 9502721 8528593
2782 9340204 9359017 8368674
2783 9327408 9171945 8162153
2784 9143144 8947394 8172626
2785 8915030 8591540 8016714
2786 8599626 8331195 8088868
2787 8339965 8003537 8047636
2788 8104898 7751284 8050861
2789 7815903 7593050 8218936
2790 7563474 7603521 8429504
2791 7360872 7533262 8616429
2792 7194132 7611712 8833878
2793 7306720 7791530 8889953
2794 7375978 8044766 8997876
2795 7506017 8343932 9293734
2796 7820660 8720499 9202344
2797 8235727 8930255 9125340
2798 8574025 9311651 9059866
2799 8926291 9506361 8965742
2800 9236395 9559766 8643112
2801 9299634 9518860 8593962
2802 9304667 9372249 8418153
2803 9252120 9180966 8305984
2804 9131636 8955099 8197158
2805 8893593 8581225 8078673
2806 8627499 8320264 8074799
2807 8314312 8017356 8071527
2808 7982506 7723947 8153683
2809 7689362 7561188 8258104
2810 7428768 7474218 8424042
2811 7225563 7419263 8515034
2812 7170546 7533703 8770872
2813 7263664 7830353 8878899
2814 7429128 7984496 9030946
2815 7589889 8379089 9120018
2816 7871917 8571320 9089007
2817 8235773 8948352 9049894
2818 8587527 9265273 9045836
2819 8906521 9452303 8893300
2820 9071380 9414731 8710915
2821 9213553 9520056 8618331
2822 9244268 9386982 8496066
2823 9279107 9179557 8275746
2824 9092845 8887217 8140788
2825 9082555 8611594 7918208
2826 8679578 8272797 7958304
2827 8267683 7927166 8053066
2828 7919506 7668646 8109280
2829 7628391 7508033 8257133
2830 7368538 7478875 8476084
2831 7261953 7422237 8589156
2832 7248461 7583314 8695404
2833 7311690 7726750 8787680
2834 7479285 7978797 8889059
2835 7618898 8334828 9084277
2836 8039298 8739369 9044896
2837 8349654 8968409 8993085
2838 8668406 9302259 8942079
2839 8981677 9477371 8874252
2840 9197851 9546476 8707187
2841 9231299 9501359 8652466
2842 9252543 9311197 8412935
2843 9215545 9103340 8289537
2844 9047483 8869616 8211981
2845 8940476 8521465 8008513
2846 8631431 8252747 8019479
2847 8355727 7911366 7977239
2848 7991063 7544334 8005847
2849 7612413 7435669 8202798
2850 7299799 7278218 8425389
2851 7129058 7250752 8523614
2852 7137460 7545848 8834815
2853 7296972 7868381 8887387
2854 7405548 7963948 9010375
2855 7532334 8307166 9063954
2856 7908559 8568524 9099226
2857 8240867 8955878 9026634
2858 8552973 9170308 8978637
2859 8907386 9382592 8806274
2860 9167042 9465310 8662229
2861 9332787 9510067 8506333
2862 9336245 9343025 8345728
2863 9320495 9166028 8242641
2864 9006814 8824200 8185552
2865 8865020 8481070 7990576
2866 8579479 8230128 8042429
2867 8343651 7873901 7963962
2868 8054163 7595743 7988695
2869 7779976 7442741 8108647
2870 7509474 7486392 8334755
2871 7332296 7405444 8526599
2872 7233872 7579825 8710118
2873 7346031 7758902 8847959
2874 7429549 7995223 8923966
2875 7576996 8296609 9120887
2876 7982720 8711147 9044251
2877 8277798 8969564 9079944
2878 8565662 9241102 8966264
2879 8839644 9331103 8854306
2880 9098903 9403667 8640611
2881 9200796 9462193 8631263
2882 9233644 9293108 8410587
2883 9220144 9130109 8240060
2884 9103928 8838181 8140724
2885 8901331 8482938 7972457
2886 8557526 8167519 7999197
2887 8208555 7966020 8136547
2888 7898342 7643928 8187974
2889 7576830 7424424 8223455
2890 7496939 7355608 8308228
2891 7382663 7366937 8355567
2892 7313108 7490711 8642332
2893 7329109 7735257 8765001
2894 7510570 7936303 8870112
2895 7611465 8326190 9008521
2896 7853296 8406127 8920440
2897 8115532 8717683 8920385
2898 8472083 9019165 8956015
2899 8742933 9308875 8918537
2900 8877687 9301978 8760701
2901 9101607 9308813 8568091
2902 9155790 9180895 8374898
2903 9246270 8997772 8140686
2904 9099281 8789490 8067513
2905 8985386 8437131 7863377
2906 8610799 8187628 7934974
2907 8328787 7879976 8001441
2908 7977859 7655548 8025089
2909 7664199 7353875 8194213
2910 7325556 7292641 8338277
2911 7219402 7244841 8483877
2912 7139149 7441441 8615612
2913 7302420 7653952 8741699
2914 7460723 7917926 8827705
2915 7646437 8269762 9031609
2916 7988202 8605140 8989086
2917 8212164 8877526 9032693
2918 8516295 9120511 8972833
2919 8788302 9253155 8883175
2920 9033267 9375896 8674495
2921 9212532 9481304 8570912
2922 9294109 9299651 8358432
2923 9168653 9062927 8241293
2924 9049844 8719644 8104208
2925 8881987 8453155 7894245
2926 8575418 8096621 7988049
2927 8245868 7892267 7999002
2928 7963505 7549870 8040807
2929 7607636 7405182 8150759
2930 7364019 7308225 8350761
2931 7307311 7384328 8464528
2932 7206435 7498027 8722942
2933 7249167 7706085 8799804
2934 7371769 7877902 8913138
2935 7584022 8244991 9024109
2936 7844727 8523318 9043287
2937 8201945 8846013 8959501
2938 8592279 9129700 8971361
2939 8847108 9292295 8820812
2940 9049320 9375702 8662596
2941 9225812 9349990 8493763
2942 9279214 9183224 8243419
2943 9191230 8908456 8145822
2944 9055748 8763783 8058285
2945 8937156 8400515 7872019
2946 8592663 8140516 7935873
2947 8346193 7832825 7931193
2948 8038944 7614435 7951693
2949 7703097 7380632 8112666
2950 7466353 7324947 8244610
2951 7309061 7302725 8434818
2952 7186731 7473090 8587176
2953 7281649 7621084 8756160
2954 7403400 7878305 8829486
2955 7513566 8301150 9136456
2956 7848547 8548948 9045561
2957 8148994 8825900 9038742
2958 8442079 9136696 8980543
2959 8859461 9369769 8866500
2960 9173312 9437948 8657856
2961 9281056 9447219 8554130
2962 9262090 9254640 8395708
2963 9140288 9029373 8248652
2964 8993558 8744631 8165268
2965 8844012 8459114 7936972
2966 8627166 8136369 7917180
2967 8409491 8003259 7941237
2968 8130297 7687900 8004018
2969 7765513 7532208 8126263
2970 7437696 7412125 8416411
2971 7249526 7405811 8491413
2972 7160394 7483388 8746023
2973 7204163 7680641 8832657
2974 7292442 7892102 9028308
2975 7391879 8235798 9177839
2976 7696569 8547519 9198490
2977 8147967 8838732 9005578
2978 8560736 9092978 8930177
2979 8862522 9275337 8783121
2980 9089759 9357897 8635694
2981 9188427 9365501 8592999
2982 9261261 9229651 8327112
2983 9165673 8920784 8196171
2984 8993796 8751029 8087229
2985 8908367 8421972 7981641
2986 8561828 8172421 7990763
2987 8229940 7879634 8074448
2988 7947744 7660407 8039654
2989 7635846 7407445 8217467
2990 7386419 7332920 8333928
2991 7199980 7249603 8511279
2992 7129353 7478242 8644540
2993 7185228 7634388 8803076
2994 7317884 7819575 8886368
2995 7493601 8197565 9138109
2996 7831798 8522126 9046072
2997 8131945 8855295 9077831
2998 8453238 9100256 9043786
2999 8730696 9261149 8919187
3000 8985880 9284420 8678314
3001 9160595 9363138 8526579
3002 9268707 9216260 8317494
3003 9231315 9066943 8154096
3004 9039602 8720001 8052508
3005 8913901 8427340 7858389
3006 8619265 8170999 7993993
3007 8354921 7958015 7949671
3008 8028740 7562345 7989103
3009 7683118 7416288 8093063
3010 7428786 7307072 8274168
3011 7286025 7280502 8344647
3012 7139051 7357399 8638817
3013 7126080 7567349 8787197
3014 7257334 7814030 8964905
3015 7384471 8124719 9064710
3016 7732030 8461536 9129099
3017 8080778 8764107 9065182
3018 8413922 9103844 9046907
3019 8715423 9237188 8874131
3020 8978878 9369243 8734400
3021 9171665 9376992 8562529
3022 9231201 9221757 8308737
3023 9149626 8970754 8282138
3024 8992205 8778973 8124835
3025 8922860 8492069 7972022
3026 8678479 8271723 7939665
3027 8406442 7933879 7956645
3028 8065225 7707197 8023508
3029 7633398 7467996 8224532
3030 7406125 7397885 8401711
3031 7081277 7265088 8591114
3032 7100826 7425350 8702872
3033 7243184 7654926 8792213
3034 7393244 7882703 8870933
3035 7494082 8222927 9114387
3036 7844853 8522121 9019750
3037 8084387 8838654 9053372
3038 8384508 9052482 8986828
3039 8778043 9302306 8851062
3040 9120111 9426426 8662119
3041 9241757 9494345 8570889
3042 9164489 9261055 8470178
3043 9246985 9138622 8248751
3044 9188729 8865065 8101151
3045 9089336 8521808 7788062
3046 8642766 8171031 7959204
3047 8313256 7951009 7998481
3048 7923039 7629941 8165542
3049 7582911 7398905 8184942
3050 7387856 7308059 8329841
3051 7301322 7294199 8385654
3052 7238849 7522490 8697960
3053 7280264 7749338 8842578
3054 7440538 7970327 8908563
3055 7534138 8180445 9095344
3056 7884739 8615227 9097331
3057 8185618 8897561 9054963
3058 8545902 9206710 8961714
3059 8842135 9286192 8847412
3060 9021760 9438757 8661584
3061 9177901 9385809 8560165
3062 9231128 9274695 8367369
3063 9181492 8996515 8216030
3064 9069851 8821102 8122563
3065 8940555 8456446 7943754
3066 8544269 8130287 7967626
3067 8255631 7866933 8049277
3068 7931153 7561202 8049325
3069 7531569 7360177 8253810
3070 7305743 7329200 8434690
3071 7151520 7345206 8599081
3072 7158767 7479501 8747969
3073 7152467 7665264 8888494
3074 7293324 7874771 8944154
3075 7493239 8221687 9094440
3076 7904064 8514724 9020861
3077 8221516 8925104 9005990
3078 8504533 9142890 9000460
3079 8946652 9447330 8845571
3080 9142039 9447154 8683007
3081 9267683 9474981 8539330
3082 9353540 9352155 8405943
3083 9259827 9223983 8272482
3084 9131710 8947888 8235797
3085 8961385 8596821 7980037
3086 8601529 8214416 8037980
3087 8249199 7961019 8095670
3088 7969357 7736609 8148615
3089 7744544 7581627 8243600
3090 7487470 7505800 8417463
3091 7279407 7448800 8572643
3092 7162675 7610325 8854133
3093 7247036 7781296 8961277
3094 7347353 7989723 8983864
3095 7542033 8357123 9217104
3096 7958454 8793688 9160193
3097 8326523 9050336 9114450
3098 8514212 9321622 9105121
3099 8850737 9521069 9084904
3100 9088082 9604925 8848328
3101 9192247 9595402 8819330
3102 9299665 9500780 8534571
3103 9249989 9220931 8367418
3104 9088615 9026472 8261250
3105 8947060 8725070 8205679
3106 8594974 8425259 8175558
3107 8308224 8167641 8243577
3108 8020018 7958194 8287622
3109 7686027 7665776 8395873
3110 7512400 7565720 8501141
3111 7415705 7610741 8586347
3112 7317691 7733184 8832993
3113 7355400 8005700 8989438
3114 7457747 8152423 9050154
3115 7609003 8522570 9281296
3116 7909540 8823186 9277304
3117 8208286 9144260 9238094
3118 8520256 9363575 9253825
3119 8855364 9694506 9170003
3120 9043331 9716118 9073928
3121 9252928 9814636 8867433
3122 9467986 9640796 8615921
3123 9439402 9491150 8392057
3124 9310064 9229974 8327264
3125 9131551 8912307 8140496
3126 8782629 8652361 8276376
3127 8491026 8375082 8271517
3128 8148441 8074706 8372033
3129 7744150 7857255 8497750
3130 7504568 7718836 8586900
3131 7376084 7681320 8693116
3132 7386283 7960015 8930885
3133 7553693 8208575 9024614
3134 7781560 8512731 9071638
3135 7918531 8843179 9326347
3136 8219339 9174343 9262956
3137 8505692 9378360 9248026
3138 8745920 9649855 9134949
3139 9124500 9756933 9036477
3140 9456536 9872790 8706581
3141 9630515 9913991 8698873
3142 9685232 9788662 8425499
3143 9547004 9458896 8335496
3144 9429198 9222733 8144631
3145 9217765 8865384 8068697
3146 8845074 8544691 8089266
3147 8455275 8151469 8109459
3148 8155218 7825042 8088417
3149 7812129 7696395 8295610
3150 7557967 7615401 8412949
3151 7301169 7519620 8557361
3152 7258095 7641064 8805539
3153 7269976 7859245 8957246
3154 7379217 8066326 9090126
3155 7551115 8417853 9211331
3156 7930796 8724983 9146179
3157 8290431 9130346 9102727
3158 8622679 9272121 9067096
3159 8888455 9456744 8894239
3160 9147404 9414748 8678961
3161 9282108 9541230 8575660
3162 9305417 9289678 8426229
3163 9316896 9169902 8206061
3164 9125574 8861493 8165997
3165 8913818 8521679 7969818
3166 8560576 8160494 8024639
3167 8322593 7894985 7929206
3168 7994851 7583842 7998548
3169 7661313 7374607 8161472
3170 7391959 7286397 8319009
3171 7240827 7204069 8393339
3172 7203205 7417884 8568873
3173 7211759 7577133 8816540
3174 7270621 7830201 8888142
3175 7507429 8099402 8987894
3176 7943613 8504070 8900272
3177 8247412 8791080 8947172
3178 8500509 9025867 8884909
3179 8786155 9214240 8776521
3180 9028708 9279257 8546772
3181 9164959 9237759 8472058
3182 9290986 9132722 8219278
3183 9234295 8968696 8121261
3184 9048595 8742855 8017489
3185 8863228 8328473 7867288
3186 8592221 8027277 7839677
3187 8162014 7736048 7989141
3188 7853785 7416369 7994139
3189 7525204 7253068 8120164
3190 7326410 7205397 8279340
3191 7151939 7159212 8405820
3192 7042235 7269124 8629535
3193 7207781 7559801 8738979
3194 7331987 7736919 8852290
3195 7491652 8122870 8942326
3196 7836817 8384577 8980774
3197 8087312 8737827 8944244
3198 8357202 8974590 8986996
3199 8712512 9208190 8795202
3200 9001481 9240097 8640539
3201 9092776 9268516 8466816
3202 9134885 9083888 8325966
3203 9123218 8883748 8056279
3204 9016561 8595848 8009283
3205 8845092 8239151 7713629
3206 8543138 7989394 7849598
3207 8244756 7734898 7878503
3208 7901261 7460428 7978119
3209 7557252 7241929 8115650
3210 7281705 7128057 8275818
3211 7092473 7066698 8383649
3212 6982151 7234130 8599420
3213 7026780 7426783 8796934
3214 7171794 7633974 8765942
3215 7408964 7986609 8987012
3216 7850608 8445585 8950226
3217 8071618 8664700 8961642
3218 8372895 9022715 8914341
3219 8692942 9160745 8835119
3220 8973173 9252491 8605811
3221 9082375 9249425 8506862
3222 9247830 9097679 8198561
3223 9232203 8840704 8039675
3224 9103294 8564928 7844813
3225 8853555 8047544 7616902
3226 8565782 7736727 7568521
3227 8351865 7450446 7514050
3228 8130608 7140878 7418743
3229 7854371 7003856 7521091
3230 7644841 6800284 7585216
3231 7461076 6716522 7627119
3232 7388031 6789642 7836646
3233 7424584 7022697 7882351
3234 7546988 7168033 8085652
3235 7664262 7625100 8299906
3236 8073843 8088353 8430297
3237 8481683 8651328 8526810
3238 8838083 9028007 8588956
3239 9155867 9386044 8619240
3240 9349488 9621121 8680866
3241 9496643 9950622 8784378
3242 9493773 9950479 8869023
3243 9483250 9986151 8913547
3244 9366791 10070008 9107090
3245 9249336 10022708 9117785
3246 8949747 9973946 9480501
3247 8633704 9941867 9699822
3248 8392096 10076482 9971602
3249 8264019 10140656 10291916
3250 8092741 10335869 10647641
3251 7908690 10515014 11024270
3252 7965968 11057743 11494162
3253 8148990 11742150 11981029
3254 8434263 12474793 12363001
3255 8648676 13228189 13024066
3256 8961791 13966469 13329454
3257 9245630 14509700 13663476
3258 9632021 15148316 13818195
3259 9998579 15729518 14091947
3260 10324914 15789503 13742848
3261 10592737 15790349 13515337
3262 10788751 15751720 13287927
3263 10823049 15670338 13145644
3264 10673087 15343259 12974485
3265 10385686 14849695 12769579
3266 10013626 14315572 12681060
3267 9708432 13956255 12601910
3268 9410885 13449374 12394789
3269 9097118 13143410 12388374
3270 8650800 12879626 12629629
3271 8352858 12516269 12469518
3272 8192782 12120242 12347365
3273 8014015 11799327 12084870
3274 7956639 11507860 11913936
3275 7974537 11458816 11868368
3276 7912035 11342552 11858657
3277 8036525 11297784 11577546
3278 8264543 11123160 11208317
3279 8615104 11078458 10799612
3280 8833667 10973853 10544006
3281 8937401 10848722 10233188
3282 8947134 10582739 10017214
3283 8929191 10239038 9663864
3284 8890925 9919245 9413892
3285 8797749 9483215 9072369
3286 8448294 9133887 9018345
3287 8126582 8712019 8992819
3288 7879243 8441630 8946397
3289 7592265 8205148 9017774
3290 7426980 8122365 9003578
3291 7359326 7951988 9054907
3292 7267739 7986879 9108137
3293 7292372 8113069 9244935
3294 7398693 8334372 9299683
3295 7587639 8586873 9479561
3296 7844954 8888040 9345954
3297 8168270 9085472 9343583
3298 8427678 9374194 9225153
3299 8808162 9489663 9079042
3300 9051880 9540410 8859538
3301 9233311 9609285 8735573
3302 9315375 9503508 8512848
3303 9290695 9387291 8432614
3304 9215259 9085031 8241754
3305 9020958 8701691 8065246
3306 8583800 8308305 8135335
3307 8349518 8046631 8061101
3308 8142362 7705769 8036889
3309 7776788 7648214 8235346
3310 7493748 7464976 8411254
3311 7361947 7456943 8456891
3312 7306644 7504463 8639793
3313 7334789 7716375 8718504
3314 7434405 7830072 8854978
3315 7531599 8266562 9036679
3316 7976368 8620959 9021655
3317 8280025 8965982 8997472
3318 8493569 9193060 9113113
3319 8764825 9355180 8968093
3320 8996455 9436332 8862724
3321 9245772 9518958 8571195
3322 9417575 9401357 8316295
3323 9409448 9171346 8160285
3324 9297790 8983326 8084061
3325 9173584 8622652 7892955
3326 8773203 8335261 7935380
3327 8459561 7977253 7925999
3328 8126906 7666659 7910282
3329 7775602 7379544 8061246
3330 7496680 7356886 8256709
3331 7372737 7287720 8352784
3332 7276420 7516982 8561110
3333 7312309 7635005 8708632
3334 7467629 7896037 8746403
3335 7623658 8153249 8933786
3336 7946708 8539719 8913601
3337 8276514 8784804 8916456
3338 8554117 9113144 8863456
3339 8986888 9332948 8693717
3340 9241172 9438618 8542295
3341 9332715 9434486 8525444
3342 9469283 9329054 8274949
3343 9412473 9196329 8148367
3344 9268065 8883445 8046025
3345 9042813 8507025 7879181
3346 8784667 8186164 7877451
3347 8507946 8012672 7846763
3348 8138026 7631857 7908801
3349 7818864 7492765 8031932
3350 7554796 7413212 8307642
3351 7367248 7431308 8392188
3352 7378906 7560396 8614607
3353 7371980 7795432 8771893
3354 7490658 8006201 8940743
3355 7615976 8327640 8998011
3356 8035745 8587335 8935457
3357 8395269 8923772 8879995
3358 8712732 9214812 8836210
3359 9114298 9435180 8671536
3360 9347029 9469358 8533834
3361 9392467 9460366 8413275
3362 9431058 9324071 8257839
3363 9457233 9123791 8045547
3364 9361748 8987192 7997881
3365 9225178 8600935 7821085
3366 8905056 8352487 7838970
3367 8551424 7982981 7855880
3368 8286080 7733282 7878852
3369 7929175 7525135 8030741
3370 7572483 7403319 8198802
3371 7429419 7389084 8391193
3372 7351286 7572050 8558531
3373 7463662 7785432 8736001
3374 7689324 8168686 8872919
3375 7931256 8543884 9009664
3376 8214812 8797054 8862022
3377 8398730 9035352 8976824
3378 8726592 9276917 8897147
3379 9086807 9422433 8740937
3380 9274653 9459920 8502782
3381 9350427 9413028 8429627
3382 9490004 9348492 8227228
3383 9489046 9208658 8088778
3384 9443979 9045793 7919887
3385 9237920 8719344 7810131
3386 8916611 8348889 7824983
3387 8764585 8213001 7825892
3388 8428954 7824701 7865699
3389 7995681 7685087 8022081
3390 7766051 7512127 8229570
3391 7581990 7560404 8328441
3392 7582273 7683442 8555713
3393 7557247 7932612 8692974
3394 7636971 8051285 8864162
3395 7758491 8441831 9013713
3396 8144150 8819793 9037003
3397 8503799 9104363 8949522
3398 8895056 9377816 8888556
3399 9204663 9572935 8703717
3400 9405686 9516125 8504367
3401 9605509 9593197 8309834
3402 9684777 9418395 8134823
3403 9746197 9348091 7950612
3404 9682649 9185779 7908757
3405 9510177 8851473 7764444
3406 9084049 8539454 7873214
3407 8852565 8303648 7900928
3408 8546039 8130269 7979073
3409 8141710 7906046 8190806
3410 7881413 7846147 8309349
3411 7732760 7749773 8475626
3412 7721827 7942173 8550404
3413 7746821 8066387 8714617
3414 7935424 8363144 8758926
3415 8111580 8642055 8969715
3416 8403108 8997413 8958350
3417 8604826 9254282 9054544
3418 8937617 9564186 8938825
3419 9340981 9726071 8731052
3420 9664036 9801607 8478453
3421 9815871 9803602 8379802
3422 9782336 9642454 8206287
3423 9715380 9491815 8164787
3424 9695314 9333866 8062096
3425 9482014 9043816 7905162
3426 9207745 8702157 7917528
3427 8952845 8424756 7880481
3428 8677509 8159214 7886305
3429 8254450 7980464 8082393
3430 7901451 7822348 8373162
3431 7745494 7873069 8477013
3432 7724476 7929784 8684370
3433 7814017 8215885 8708133
3434 8049265 8448782 8810562
3435 8287199 8864518 8887227
3436 8591915 9166299 8959045
3437 8822274 9386182 8906341
3438 9129253 9664157 8946553
3439 9569535 9936839 8686816
3440 9805119 10014406 8573775
3441 9977487 10031371 8430283
3442 10025094 9904024 8184568
3443 10064255 9673466 8012013
3444 9963471 9547536 7954142
3445 9833131 9180870 7754615
3446 9475946 8896359 7789574
3447 9183100 8570983 7818923
3448 8912053 8397144 7822279
3449 8558486 8154959 8029484
3450 8268527 8134642 8221279
3451 8074911 8141373 8464723
3452 8001285 8239085 8595363
3453 8042012 8410869 8693120
3454 8247770 8748321 8815457
3455 8415156 9074489 9005951
3456 8749619 9368843 8921194
3457 9046063 9620917 9027346
3458 9386922 10037331 8974794
3459 9732751 10221598 8843316
3460 9998791 10268981 8541680
3461 10137911 10212874 8438260
3462 10267356 10139815 8249295
3463 10095809 9935564 8202573
3464 10068557 9723367 8044496
3465 9925308 9424056 7847895
3466 9621505 9052576 7879891
3467 9214436 8759546 7904342
3468 8953805 8475449 7983583
3469 8561601 8350084 8149134
3470 8273089 8174955 8368199
3471 8104721 8260765 8458035
3472 8218194 8434663 8647563
3473 8207383 8665358 8779193
3474 8286785 8803472 8948567
3475 8337411 9175265 9159504
3476 8634123 9426413 9165304
3477 8968199 9770792 9112466
3478 9338944 10061751 9118883
3479 9688188 10261787 8924465
3480 9876461 10294876 8817480
3481 10026791 10387347 8692878
3482 10268487 10429680 8481638
3483 10364269 10222287 8235423
3484 10088798 9911435 8202682
3485 9922028 9648102 8131750
3486 9436327 9276779 8235983
3487 9191324 8958047 8188691
3488 8913253 8829405 8263073
3489 8643496 8590024 8393724
3490 8411958 8523769 8506683
3491 8272393 8513783 8659974
3492 8087480 8655335 8903447
3493 8090116 8768127 9117172
3494 8189902 8990568 9123885
3495 8320129 9283495 9374835
3496 8662778 9610982 9233438
3497 8973985 9822901 9228203
3498 9299621 10078888 9091020
3499 9782795 10372489 8973656
3500 9935143 10444235 8841446
3501 10010579 10443463 8776568
3502 9983483 10162589 8570739
3503 9967701 10013982 8388188
3504 9887798 9832781 8324722
3505 9613573 9489681 8293748
3506 9249813 9139808 8282629
3507 8970389 8846774 8270390
3508 8716780 8538929 8230540
3509 8374676 8297544 8314646
3510 8068190 8106702 8470749
3511 7852293 8103431 8584934
3512 7739557 8099016 8798140
3513 7732134 8315245 8936980
3514 7798840 8469672 9078476
3515 7869123 8811216 9237906
3516 8255764 9105516 9235717
3517 8573760 9396503 9167348
3518 8830116 9624460 9211027
3519 9211348 9849953 8970717
3520 9492468 9910709 8785245
3521 9683984 9994355 8658891
3522 9827420 9943151 8455947
3523 9717177 9664467 8370219
3524 9463239 9361113 8285033
3525 9251144 8936260 8075795
3526 8922855 8618848 8038020
3527 8643574 8267974 8061943
3528 8356542 8049616 8048763
3529 7917298 7716889 8280695
3530 7580183 7639028 8436887
3531 7351402 7534418 8623199
3532 7338092 7736976 8745898
3533 7414785 7946883 8956424
3534 7551023 8230056 8991864
3535 7727131 8548403 9178359
3536 8079329 8888556 9160352
3537 8315459 9120322 9149342
3538 8640584 9368799 9086829
3539 8935788 9508335 8915287
3540 9211643 9600138 8734211
3541 9352081 9547726 8588898
3542 9405097 9444889 8392312
3543 9331268 9256329 8244363
3544 9219509 8976746 8178592
3545 9160996 8702535 7934395
3546 8873620 8377622 7961708
3547 8473003 8173789 8112735
3548 8093474 7852932 8247894
3549 7719274 7627829 8294958
3550 7446415 7478187 8436984
3551 7294348 7453658 8545484
3552 7234760 7531132 8772522
3553 7287744 7814899 8855422
3554 7449625 8014172 8965268
3555 7545330 8315901 9129657
3556 7878804 8610473 9162087
3557 8233712 8901733 8973339
3558 8544066 9209894 9013521
3559 8873951 9384591 8869598
3560 9118660 9439136 8681514
3561 9292786 9469642 8551704
3562 9362608 9333269 8350214
3563 9379047 9086190 8090216
3564 9277760 8941586 8055764
3565 9119581 8623813 7922544
3566 8757201 8289055 7888773
3567 8381726 7911605 7996815
3568 8008147 7692501 8036141
3569 7740436 7498790 8188621
3570 7573114 7551297 8302761
3571 7413720 7468005 8516225
3572 7183127 7544490 8714187
3573 7183306 7720743 8959006
3574 7322858 7978975 9012025
3575 7398555 8240429 9226222
3576 7803939 8609412 9148908
3577 8115450 8904729 9142553
3578 8438715 9190992 9066754
3579 8742821 9412604 9037264
3580 9032425 9475016 8794692
3581 9238916 9583830 8677332
3582 9396135 9484114 8469893
3583 9352788 9324362 8301797
3584 9190824 9037686 8239047
3585 9045385 8719703 8007708
3586 8724556 8277961 8006862
3587 8387320 7998273 7981204
3588 8054851 7726238 8104755
3589 7743741 7587196 8188866
3590 7442090 7367497 8397497
3591 7213641 7381925 8480896
3592 7105240 7433085 8786599
3593 7151368 7691270 8910324
3594 7264356 7917836 9019170
3595 7414356 8335135 9215813
3596 7919555 8734574 9193851
3597 8174205 8970224 9114349
3598 8464733 9133643 9017968
3599 8793741 9317820 8896288
3600 9046245 9409555 8729078
3601 9305321 9527971 8565780
3602 9364834 9424014 8412913
3603 9299277 9124012 8284448
3604 9106275 8948487 8176332
3605 9025944 8567276 7968142
3606 8634994 8231704 7999052
3607 8347162 7927106 8010409
3608 8041841 7707195 8033685
3609 7724623 7493640 8175361
3610 7563949 7451234 8286864
3611 7405243 7413693 8441838
3612 7301783 7608244 8680982
3613 7251195 7844390 8993070
3614 7328555 8044587 9049904
3615 7436644 8276171 9218394
3616 7724911 8535848 9159897
3617 8109546 8845650 9149700
3618 8455144 9213732 9104349
3619 8755311 9367643 8966734
3620 9031384 9487394 8821188
3621 9258185 9520530 8614745
3622 9334056 9367256 8404588
3623 9314106 9244848 8292946
3624 9237618 9045322 8215867
3625 9039334 8782226 8059614
3626 8743590 8392375 8071283
3627 8410516 8063732 8060552
3628 8090082 7762513 8093717
3629 7846177 7659750 8185537
3630 7538582 7542209 8436981
3631 7303841 7504885 8510156
3632 7200085 7523948 8774617
3633 7178476 7714693 8843195
3634 7381798 7966446 8956524
3635 7589247 8313634 9070513
3636 7866728 8643761 9127634
3637 8153241 8918320 9084657
3638 8366298 9161181 9122977
3639 8751913 9367610 8932830
3640 9077962 9572059 8827782
3641 9325965 9667274 8718417
3642 9476799 9522078 8421008
3643 9394003 9216498 8254303
3644 9244848 8924725 8047553
3645 9119236 8583068 7840852
3646 8801378 8323393 7936319
3647 8473311 8017986 8004785
3648 8118728 7802472 8080224
3649 7736021 7596481 8283106
3650 7507163 7553446 8391591
3651 7331718 7443668 8579946
3652 7240991 7587487 8663468
3653 7257063 7756727 8925240
3654 7315226 8037895 9013158
3655 7598293 8314862 9118769
3656 7964220 8618902 9046552
3657 8197318 8914078 9078187
3658 8498505 9218422 9039172
3659 8796649 9394128 8926308
3660 9089476 9453222 8727599
3661 9267610 9503115 8609413
3662 9378593 9410244 8393132
3663 9307164 9154732 8201924
3664 9175864 8924320 8136257
3665 9038587 8688779 7954489
3666 8744895 8257045 7962789
3667 8405841 7990715 7976068
3668 8031461 7659816 8063251
3669 7732884 7538902 8191801
3670 7536216 7496826 8391976
3671 7370051 7506581 8508100
3672 7250564 7540376 8726928
3673 7304306 7793136 8838120
3674 7437950 7991131 8985492
3675 7610218 8316373 9028366
3676 7984409 8591335 8979471
3677 8237477 8880659 9014805
3678 8481024 9183869 9040987
3679 8871917 9428398 8869516
3680 9091688 9477489 8701146
3681 9260073 9482713 8630746
3682 9299285 9382948 8409461
3683 9271662 9163492 8237585
3684 9068240 8857330 8124938
3685 8958033 8594092 8025628
3686 8588126 8291166 8067894
3687 8310134 8084290 8176579
3688 8110513 7859931 8120064
3689 7788826 7591340 8207538
3690 7489226 7429037 8340649
3691 7279791 7328586 8471694
3692 7180044 7468447 8697715
3693 7218948 7705012 8889781
3694 7342803 7915714 8934939
3695 7596191 8267098 9064942
3696 7988631 8641828 8998323
3697 8193687 8890713 9053517
3698 8514586 9158481 9013081
3699 8873960 9450178 8899945
3700 9091846 9454480 8756714
3701 9248201 9494419 8620475
3702 9377614 9302342 8315277
3703 9405875 9161629 8087139
3704 9170773 8961159 8182858
3705 8921902 8646140 8079415
3706 8614641 8290984 8117893
3707 8327308 8027952 8050916
3708 8092034 7700311 7985762
3709 7791606 7547644 8079003
3710 7508278 7401855 8345825
3711 7296006 7429431 8472604
3712 7298155 7538560 8703668
3713 7160700 7645586 8852356
3714 7293597 7834492 8917478
3715 7579513 8238531 9071686
3716 7860614 8565311 9084341
3717 8194945 8835147 8982321
3718 8627562 9160662 8938481
3719 8901246 9363677 8831647
3720 9104766 9419432 8636284
3721 9268930 9388820 8526795
3722 9383314 9411381 8369376
3723 9351981 9126830 8173991
3724 9199523 8930174 8075547
3725 9003480 8547120 7953510
3726 8633351 8196828 7891421
3727 8291524 7818314 7983428
3728 8056233 7675603 7983944
3729 7739650 7541637 8203331
3730 7496011 7460946 8345528
3731 7325683 7463128 8512599
3732 7238868 7546707 8651824
3733 7201887 7685019 8926811
3734 7351565 7916360 8954530
3735 7456081 8225852 9149191
3736 7771266 8516069 9077203
3737 8084378 8821157 9045021
3738 8532347 9085257 8971333
3739 8822513 9280952 8806907
3740 9044282 9315855 8688013
3741 9229024 9404498 8549843
3742 9298551 9316042 8384020
3743 9327258 9209828 8214140
3744 9172631 8888607 8103115
3745 9056554 8594071 7884021
3746 8702664 8197852 7890880
3747 8401288 7926210 7877779
3748 8085497 7633845 8005641
3749 7797761 7490305 8046251
3750 7525431 7349334 8249286
3751 7293429 7290459 8372655
3752 7160395 7418729 8644948
3753 7195193 7637336 8783627
3754 7246602 7760964 8864483
3755 7465374 8053030 8989839
3756 7763976 8382465 9013309
3757 8022979 8725780 8999912
3758 8352430 9045534 9002525
3759 8708871 9203289 8864303
3760 8987711 9374650 8665486
3761 9197085 9326606 8527822
3762 9280088 9318580 8347695
3763 9305082 9001381 8165553
3764 9108732 8888232 8107190
3765 8963862 8567255 8005701
3766 8680858 8294164 7958959
3767 8446002 7931709 7934502
3768 8073313 7638010 7928644
3769 7712629 7423775 8126934
3770 7554203 7433803 8271137
3771 7324267 7344772 8462113
3772 7233913 7434526 8554876
3773 7272242 7626693 8729068
3774 7304200 7792783 8892434
3775 7452112 8138644 9024467
3776 7763401 8359434 8985037
3777 8047710 8763398 9031672
3778 8395587 9026592 8978254
3779 8719067 9263591 8868243
3780 8937678 9246288 8708397
3781 9131997 9317681 8520208
3782 9247006 9221872 8344781
3783 9292317 9041003 8088690
3784 9104347 8799674 8112378
3785 9005629 8489169 7838054
3786 8690941 8139048 7853278
3787 8422292 7911904 7853867
3788 8077399 7549196 7914693
3789 7706501 7335945 8050400
3790 7502916 7263855 8200480
3791 7296448 7236987 8367440
3792 7059970 7319769 8629437
3793 7099978 7525159 8805091
3794 7208782 7791822 9015010
3795 7448232 8148052 9102760
3796 7718840 8527867 9108841
3797 8048649 8755032 9111647
3798 8380027 9207264 9087875
3799 8710938 9305504 8940965
3800 9115786 9436420 8607409
3801 9369664 9410985 8515273
3802 9418172 9394760 8286583
3803 9374737 9081620 8132626
3804 9225594 8931673 8055708
3805 8974344 8550837 7973805
3806 8668760 8214655 7949363
3807 8492492 7922615 7887284
3808 8157183 7695685 7930031
3809 7759900 7437511 8078002
3810 7439818 7274880 8256420
3811 7146943 7248303 8500707
3812 7113109 7351117 8640534
3813 7174034 7587714 8815999
3814 7318483 7809701 8878778
3815 7466903 8167472 9083730
3816 7767631 8465058 9070408
3817 8023542 8772832 9066347
3818 8321799 8997821 9063273
3819 8626077 9274772 8946228
3820 8983430 9346066 8761271
3821 9287730 9538805 8526222
3822 9392262 9379989 8385967
3823 9297801 9118706 8164846
3824 9083633 8784883 8141287
3825 8978685 8537733 7918364
3826 8694539 8200345 7972278
3827 8345033 7879803 7912576
3828 7979091 7519392 8034039
3829 7641755 7375607 8133728
3830 7436592 7320054 8285375
3831 7313808 7286565 8394961
3832 7224799 7447820 8575708
3833 7140565 7584128 8794566
3834 7236438 7746046 8947594
3835 7358209 8076581 9095871
3836 7696288 8498138 9137437
3837 8038282 8775592 9099276
3838 8363649 9091370 9022051
3839 8811224 9236248 8842304
3840 8943339 9309902 8658552
3841 9095286 9271398 8612563
3842 9167273 9268411 8387280
3843 9244766 9087992 8269607
3844 9077093 8816165 8052474
3845 8939548 8507381 7940905
3846 8698683 8238202 7901962
3847 8333691 7888223 7980737
3848 7975375 7621979 7973412
3849 7658988 7430639 8189402
3850 7464349 7295783 8219052
3851 7345762 7259184 8353514
3852 7230245 7394092 8547462
3853 7228889 7640901 8859423
3854 7328655 7796868 8895184
3855 7337404 8068586 9118040
3856 7623786 8432076 9164863
3857 7904368 8705725 9142766
3858 8362425 9026065 9045473
3859 8708615 9254593 8875680
3860 8998849 9300145 8728849
3861 9176509 9375718 8538540
3862 9218515 9289471 8401133
3863 9234286 9110751 8190469
3864 9016045 8833912 8185271
3865 8944351 8569320 7970156
3866 8799747 8236116 7852159
3867 8537987 7967500 7815029
3868 8189968 7697533 7932834
3869 7798619 7579932 8169433
3870 7365827 7449979 8496401
3871 7236353 7407893 8554403
3872 7251633 7546830 8711258
3873 7289498 7804829 8906415
3874 7426559 8093060 9072109
3875 7555836 8374101 9212494
3876 7808265 8646290 9195593
3877 8136842 8926378 9137738
3878 8476015 9243036 9137591
3879 8814516 9444919 8998677
3880 9119896 9615212 8773089
3881 9270380 9612001 8710293
3882 9368505 9549623 8477651
3883 9324236 9227385 8354438
3884 9230688 9055259 8170214
3885 9187881 8810947 8084506
3886 8765515 8429927 8104962
3887 8435518 8153472 8217586
3888 8126970 7960188 8177600
3889 7726260 7685599 8401102
3890 7359648 7570552 8549936
3891 7284398 7533033 8657454
3892 7185605 7579878 8761944
3893 7259347 7837577 8968697
3894 7502618 8163528 9051508
3895 7680475 8552286 9254770
3896 7956904 8821334 9256903
3897 8223360 9154903 9243192
3898 8510234 9380400 9269541
3899 8907919 9694324 9120742
3900 9163246 9767443 8990909
3901 9357600 9901306 8873297
3902 9376296 9781358 8814448
3903 9271819 9533046 8596231
3904 9342492 9344618 8417438
3905 9174992 9038531 8236391
3906 8949207 8687459 8217563
3907 8678435 8515376 8166780
3908 8443385 8276674 8295764
3909 8035325 8072175 8387047
3910 7733711 7951677 8628575
3911 7624924 7940569 8693639
3912 7576518 8054969 8885016
3913 7511175 8232986 9060481
3914 7657118 8442176 9149107
3915 7776326 8719956 9308440
3916 8005543 9082377 9398183
3917 8336772 9354842 9317812
3918 8690416 9610681 9277229
3919 9037957 9771478 9096828
3920 9272659 9870671 8905186
3921 9458858 9810562 8777500
3922 9569365 9802482 8578325
3923 9440193 9491126 8407333
3924 9392341 9293455 8228421
3925 9236654 8973920 8143091
3926 8883076 8542022 8075930
3927 8487346 8179191 8142996
3928 8232728 7987880 8118804
3929 7919636 7792610 8274851
3930 7669083 7720086 8419543
3931 7484241 7655526 8561362
3932 7409729 7743233 8680658
3933 7412570 7956094 8918832
3934 7552347 8159326 8950719
3935 7666784 8472847 9149160
3936 7992572 8731579 9126086
3937 8284588 9002188 9041532
3938 8554686 9234883 9111617
3939 8833105 9543044 8982764
3940 9134950 9584940 8841310
3941 9237560 9599108 8699064
3942 9381856 9454626 8516809
3943 9281533 9240392 8271706
3944 9167332 8971081 8234764
3945 9000946 8680147 8000598
3946 8788864 8305986 7986123
3947 8479468 8042273 7896581
3948 8164135 7759360 8017784
3949 7819622 7530263 8098861
3950 7469758 7354211 8327433
3951 7211858 7291539 8463057
3952 7070693 7391940 8670243
3953 7140001 7570852 8820724
3954 7302076 7791979 8906522
3955 7434269 8068824 9035012
3956 7675209 8367791 9011481
3957 8067465 8695346 9017438
3958 8404349 8999615 8961303
3959 8716263 9183836 8834697
3960 8918620 9315880 8708597
3961 9050348 9230009 8640020
3962 9185206 9224946 8370909
3963 9171614 9005458 8264839
3964 9107547 8841179 8070444
3965 9025133 8559883 7934159
3966 8730330 8221868 7877076
3967 8427552 7872976 7912882
3968 8130153 7635501 7887447
3969 7831075 7388522 8013952
3970 7556394 7294466 8152195
3971 7320961 7256090 8378651
3972 7198061 7322090 8550125
3973 7134318 7503551 8750325
3974 7208460 7744508 8905084
3975 7359385 8083884 9056552
3976 7643948 8377033 9043043
3977 8035361 8712970 9007283
3978 8390735 8945549 8943841
3979 8675392 9151461 8774534
3980 8955426 9268417 8696753
3981 9184820 9367219 8518794
3982 9229055 9224884 8401728
3983 9120270 9047580 8245803
3984 8966153 8740844 8138579
3985 8934778 8507976 7915310
3986 8528036 8061677 7962891
3987 8269132 7796878 7909131
3988 8007924 7479384 7959702
3989 7612195 7284726 8045911
3990 7403383 7267848 8274854
3991 7163573 7238986 8472529
3992 7055687 7285526 8635526
3993 7117648 7500304 8723954
3994 7305543 7842453 8886538
3995 7499856 8113210 8996231
3996 7811843 8424101 8905918
3997 8209747 8709667 8927604
3998 8408912 9055009 8948449
3999 8761404 9256515 8879184
4000 9007199 9341769 8660067
4001 9259945 9390258 8553390
4002 9304507 9277144 8268511
4003 9315060 8890510 8011982
4004 9221780 8656118 7802393
4005 9032599 8260508 7632905
4006 8863619 8054204 7526497
4007 8549597 7656982 7543644
4008 8270178 7322111 7390791
4009 7899528 7006055 7542499
4010 7632155 6859242 7605408
4011 7477807 6823715 7752647
4012 7406520 6862349 7883435
4013 7456114 7176318 8150353
4014 7540898 7457660 8312580
4015 7637721 7823405 8565763
4016 7912916 8138910 8591094
4017 8274092 8523841 8587100
4018 8581034 8850136 8684663
4019 8996334 9347040 8694568
4020 9176619 9667062 8905505
4021 9393310 9986012 8905475
4022 9554590 10205433 8996791
4023 9535848 10282061 9071141
4024 9474993 10340174 9293728
4025 9290197 10306827 9357326
4026 9042361 10140390 9516674
4027 8886255 10191735 9669804
4028 8709435 10167536 9899887
4029 8470913 10300355 10245866
4030 8281398 10499978 10643945
4031 8110484 10842590 11130694
4032 8010121 11320394 11701565
4033 8059276 11933811 12233322
4034 8164533 12656991 12840279
4035 8467874 13370631 13322160
4036 8745438 14021694 13608269
4037 9155646 14639904 13880979
4038 9379196 15183609 14058711
4039 9806034 15525240 14088775
4040 10173145 15701773 13823786
4041 10310823 15695902 13698890
4042 10606004 15706208 13374581
4043 10687973 15480690 13172643
4044 10513703 15256036 12989075
4045 10407192 14851446 12763030
4046 10121795 14527013 12712274
4047 9766258 14054838 12641711
4048 9353088 13465396 12437973
4049 8862104 13053410 12549482
4050 8540191 12742157 12552156
4051 8185648 12360507 12473252
4052 7951109 11912609 12327084
4053 7744663 11526392 12142080
4054 7611245 11216403 11949663
4055 7463053 11156315 12076316
4056 7533514 11088767 11975419
4057 7742878 11029745 11639681
4058 8018410 10876152 11229703
4059 8393435 10916209 10781838
4060 8654351 10864836 10578440
4061 8841294 10804153 10269733
4062 9008782 10597904 9972239
4063 9063724 10331503 9593396
4064 8944478 9939408 9401264
4065 8867191 9675752 9156961
4066 8562726 9295264 9159691
4067 8329651 8949911 9006533
4068 8013283 8548501 8952802
4069 7628919 8285700 9030882
4070 7390900 8076525 9082376
4071 7259545 7966588 9080628
4072 7198492 8035448 9195146
4073 7266244 8178674 9249614
4074 7417768 8342794 9270279
4075 7547136 8518304 9389201
4076 7793102 8867125 9397920
4077 8095578 9052916 9336966
4078 8369495 9346005 9273442
4079 8773790 9496039 9103880
4080 9095022 9621675 8871780
4081 9187193 9563819 8804558
4082 9172862 9498904 8637237
4083 9178242 9238945 8471898
4084 9162321 9098191 8285211
4085 8946998 8763113 8242743
4086 8726190 8517021 8146260
4087 8476470 8186677 8147126
4088 8166823 7873891 8102760
4089 7810925 7644772 8265176
4090 7517660 7513252 8387823
4091 7312478 7496439 8542140
4092 7331660 7572555 8607531
4093 7421967 7819423 8779888
4094 7544337 8071378 8870937
4095 7593930 8301094 9073445
4096 7777697 8529384 9120777
4097 8069584 8845657 9100825
4098 8418782 9115521 9057779
4099 8803493 9375607 8900888
4100 9003166 9384977 8784616
4101 9199509 9442068 8552475
4102 9330850 9330268 8359032
4103 9304669 9106378 8151719
4104 9220959 8908465 8080572
4105 9068473 8655311 7900760
4106 8837502 8282328 7899716
4107 8441182 7908866 7848909
4108 8076549 7609201 7947586
4109 7810460 7463637 8045655
4110 7527211 7312408 8228358
4111 7382136 7386987 8389564
4112 7283788 7492800 8587225
4113 7261114 7637882 8754733
4114 7393207 7893845 8871969
4115 7654943 8229521 8949814
4116 7962216 8635848 9029475
4117 8199156 8879737 8994099
4118 8544573 9192230 8968296
4119 8970679 9431128 8796976
4120 9210745 9523370 8662056
4121 9323740 9439584 8485056
4122 9463244 9460593 8324051
4123 9413540 9186295 8181690
4124 9420809 9042823 7983262
4125 9301960 8743303 7870705
4126 8973852 8407488 7790073
4127 8602694 8020076 7863569
4128 8270743 7756810 7866127
4129 7884075 7508260 8089880
4130 7636628 7419874 8133385
4131 7428177 7354714 8314897
4132 7309155 7384058 8468357
4133 7370057 7685527 8712103
4134 7529377 7968608 8777744
4135 7679610 8216013 8904212
4136 7989760 8552421 8953122
4137 8229852 8888544 8987557
4138 8510773 9147569 8976492
4139 8919483 9413085 8777664
4140 9264842 9586031 8682630
4141 9435551 9613160 8508424
4142 9506521 9429382 8330407
4143 9518567 9317353 8081135
4144 9408395 9000750 8036998
4145 9301678 8789069 7830997
4146 9052603 8407330 7799174
4147 8717985 8151851 7840207
4148 8294384 7864335 7972679
4149 7971664 7619541 8052710
4150 7677772 7430164 8190667
4151 7528110 7466950 8294143
4152 7417314 7581872 8548278
4153 7462168 7786513 8737808
4154 7588061 8079325 8910569
4155 7756786 8332101 9038353
