0 9283946 4105362 3233872
1 9217448 4023091 3301403
2 9224727 3980956 3177183
3 9204319 3893085 3159232
4 8952975 3701290 3246316
5 8992450 3755147 3207593
6 8998461 3661296 3159229
7 9065078 3679020 3045856
8 9006189 3656035 3123293
9 8989531 3632043 3127586
10 9109495 3826536 3158977
11 9215472 3791875 3066085
12 9127859 3804092 3104885
13 9126632 3789827 3126213
14 9086601 3822401 3134805
15 9028218 3667837 3132200
16 9058540 3651722 3046292
17 9112354 3793255 3118645
18 9163668 3774926 3048743
19 9129402 3796733 3103272
20 9224401 3783827 3036257
21 9197125 3863214 3079756
22 9321389 3948996 3065001
23 9342429 3997261 3048549
24 9252489 3980862 3169834
25 9167720 3846068 3126771
26 9169602 3814779 3092255
27 9177201 3681167 2957810
28 9141787 3675996 2966851
29 9191471 3697767 2959807
30 9322268 3780750 2864512
31 9325037 3805108 2935484
32 9392315 3818320 2886901
33 9473511 3889248 2885561
34 9387538 3784886 2904640
35 9202769 3720514 2954892
36 9137882 3576091 2920502
37 9009504 3470534 2945429
38 8739191 3247726 2940713
39 8553230 2995419 2845469
40 8597077 3056433 2971100
41 8636235 3104185 2927638
42 8770873 3266345 2974094
43 8767607 3263551 2970636
44 8840035 3310969 2944682
45 8830779 3295643 2920427
46 8841194 3283018 2901105
47 8897859 3371524 2924392
48 8843189 3257897 2891790
49 8858963 3370809 2930549
50 8888880 3363388 2905326
51 8978484 3442329 2857074
52 8984537 3434228 2901119
53 9008877 3541692 2924837
54 9107221 3638710 2978996
55 9122391 3595962 2983994
56 9099093 3672534 3001984
57 9044785 3490108 2895478
58 9073768 3595255 2900659
59 9146938 3605498 2931050
60 9119211 3657924 2976402
61 9202848 3682963 2972070
62 9094839 3530630 2890980
63 9163247 3675770 2920913
64 9262227 3737514 2931282
65 9315553 3847903 3004933
66 9253569 3744958 2965414
67 9332767 3865571 2927579
68 9275716 3780855 2975909
69 9202641 3685036 2938364
70 8892791 3482859 3039535
71 8821769 3329785 2970858
72 8718274 3298405 2982670
73 8738391 3263626 3016902
74 8735371 3318086 3008558
75 8788514 3323675 2998371
76 8740404 3306824 2951707
77 8703865 3322160 3060256
78 8767859 3315925 3031841
79 8732295 3401877 3120442
80 8773857 3279857 2988802
81 8844644 3401326 2943976
82 8921730 3400347 2998866
83 8876003 3460278 3040495
84 8867608 3419001 3029208
85 8882642 3393561 2959945
86 8926942 3513049 3023515
87 8865170 3394597 2993132
88 8824531 3405963 3043012
89 8848937 3475220 3094631
90 8821975 3558537 3102991
91 8977950 3701013 3151127
92 9046245 3704274 3058267
93 9059688 3743929 3167616
94 9124679 3793838 3149200
95 9211091 3960463 3202837
96 9189095 3910880 3199853
97 9220143 4049865 3291100
98 9227201 4075629 3307714
99 9175536 3997235 3217630
100 9367871 4103706 3148045
101 9395780 4054834 3151591
102 9461686 4214835 3174345
103 9450683 4177323 3196380
104 9504886 4236809 3158571
105 9489602 4226516 3187267
106 9435282 4137658 3168366
107 9109455 3883570 3207962
108 8835254 3516106 3135031
109 8641463 3358325 3173606
110 8380896 3044209 3104329
111 8382444 3186496 3233331
112 8397267 3239358 3309884
113 8487694 3357265 3298679
114 8579110 3519241 3336695
115 8693242 3560644 3303831
116 8850212 3807434 3398218
117 8790295 3744462 3448422
118 8782228 3866460 3486963
119 8824679 3817135 3442992
120 8826953 3861413 3486269
121 8813018 3939639 3588257
122 8920477 3964623 3492404
123 8948473 4030329 3538776
124 8976281 3918917 3423503
125 9008767 4075798 3490098
126 9072904 4087556 3439594
127 9156167 4139328 3446482
128 9105410 4173636 3515658
129 9156890 4183483 3445076
130 9197546 4209071 3460801
131 9332023 4228043 3334975
132 9252803 4215266 3378142
133 9289109 4158466 3288352
134 9221823 4232324 3451103
135 9245007 4178854 3349826
136 9371427 4269912 3339911
137 9361338 4272499 3364973
138 9366588 4181430 3239304
139 9301992 4221549 3365124
140 9153583 4004603 3306728
141 9106563 3981433 3371020
142 8877972 3734340 3300448
143 8796939 3591911 3226270
144 8747805 3427966 3166873
145 8642352 3356066 3162819
146 8650771 3397658 3212840
147 8748563 3398149 3081459
148 8805900 3505733 3151010
149 8755391 3370577 3082128
150 8838257 3466707 2998397
151 8835299 3379158 2975977
152 8782958 3319362 2951267
153 8799131 3339838 2983128
154 8853692 3296327 2917171
155 8874405 3382421 2949514
156 8864791 3377230 2955000
157 8960807 3508469 2945245
158 8997893 3402744 2919620
159 8973106 3388752 2812999
160 9047275 3384849 2815338
161 9127277 3418847 2734041
162 9113859 3542611 2863429
163 9097451 3517303 2895524
164 9041098 3621831 3016961
165 9137102 3631795 2950613
166 9170708 3643043 2895797
167 9073163 3561573 2934535
168 9132561 3527809 2817615
169 9096953 3635010 2940059
170 9107432 3568376 2907861
171 9143484 3683944 2962797
172 9266638 3621488 2859659
173 9197924 3692222 2934588
174 9280995 3726675 2939420
175 9339311 3750517 2896055
176 9254556 3711736 2915094
177 8875019 3304018 2896127
178 8593494 3145366 2993401
179 8322320 2771448 2864725
180 8335028 2762253 2805571
181 8404964 2827904 2906803
182 8474861 2933700 2930619
183 8645532 3099389 2860676
184 8762025 3149969 2813702
185 8656736 3208076 2944476
186 8741729 3077168 2803524
187 8813376 3191121 2773226
188 8813778 3111708 2778097
189 8883318 3244043 2784811
190 8885216 3177542 2768364
191 8878871 3204445 2746591
192 8874120 3255815 2790398
193 8900537 3160894 2732779
194 8941077 3273555 2766253
195 8965772 3235674 2729022
196 8906530 3255653 2769274
197 8898308 3309010 2906576
198 9028847 3351740 2791632
199 9138683 3460224 2759057
200 9195110 3418073 2700996
201 9153300 3549203 2758473
202 9279828 3579410 2761835
203 9275597 3592604 2708649
204 9118110 3407878 2748521
205 9083085 3378784 2720674
206 8970660 3249497 2718958
207 9041155 3293645 2702005
208 9110025 3392249 2712028
209 9148376 3373295 2682692
210 9155183 3414592 2685092
211 9213654 3427757 2680575
212 9301725 3462297 2569377
213 9285483 3492939 2687987
214 9015328 3256784 2681553
215 8600941 2879800 2722759
216 8469166 2613664 2610524
217 8502673 2750452 2684231
218 8579881 2844892 2714172
219 8676142 2976629 2750737
220 8764456 3120031 2804185
221 8956346 3289183 2791475
222 9040716 3484303 2914361
223 9072455 3602249 2964794
224 9257800 3804863 2964189
225 9406493 3899553 2951528
226 9516632 4197369 3097233
227 9619873 4409617 3203339
228 9754209 4651848 3300869
229 9877730 4941311 3501486
230 10008689 5058138 3485906
231 10168568 5354676 3589234
232 10324332 5509381 3680305
233 10498955 5907489 3825414
234 10617208 6170795 3984909
235 10713012 6335871 4018511
236 10738388 6293021 3949192
237 10798067 5995761 3588752
238 10715186 5781633 3473225
239 10637176 5480676 3297906
240 10477401 5345384 3271783
241 10259866 5020712 3172323
242 10133357 4941862 3265585
243 9975418 4835101 3321019
244 9936362 4728257 3245266
245 9740844 4599375 3302132
246 9668611 4460025 3211095
247 9478424 4437350 3380909
248 9422740 4358033 3357924
249 9445741 4397266 3358607
250 9170724 3975182 3321243
251 8680573 3509798 3302094
252 8273824 3096728 3301076
253 8260293 2916706 3070190
254 8355962 2953118 3057490
255 8460551 2902696 2924388
256 8532052 3039338 2969612
257 8503799 3106114 3014124
258 8691450 3202439 2962365
259 8665863 3213214 2993997
260 8738288 3201477 2895984
261 8624835 3228716 3032267
262 8703554 3151070 2914986
263 8754037 3350690 2985643
264 8859661 3314398 2952555
265 8893962 3360316 2858908
266 8783252 3255725 2903568
267 8824307 3244289 2882324
268 8743003 3290356 2988433
269 8819905 3304342 2953225
270 8836884 3368976 2931072
271 8948626 3228973 2746923
272 9027464 3364621 2779413
273 9078721 3355085 2715768
274 9096359 3356926 2675237
275 9076763 3426847 2800448
276 9003731 3345521 2806149
277 8937738 3446956 2881863
278 8974156 3396150 2855180
279 8953913 3498037 2928910
280 9033583 3466764 2886178
281 8999253 3452989 2874845
282 9064894 3563248 2930729
283 9132969 3554457 2831501
284 9187251 3597433 2841169
285 9061417 3502983 2888741
286 8923556 3431934 2953074
287 8882115 3286677 2855488
288 8791091 3211853 2856812
289 8668616 3057932 2848725
290 8662903 2957905 2760184
291 8767263 3152634 2832638
292 8752041 3186865 2906308
293 8761213 3377131 3011312
294 8745574 3307659 3057412
295 8707779 3278108 2984877
296 8787338 3257673 2956322
297 8891461 3428714 2941483
298 8811319 3432543 3063943
299 8911268 3428259 2969647
300 8977985 3532196 2971401
301 8981647 3483950 2932026
302 8972679 3574667 2949848
303 8959982 3455513 2953791
304 8929951 3507762 2928596
305 8968666 3493294 2936514
306 8915790 3402263 2900494
307 8886217 3443936 2980489
308 9008526 3530682 2984925
309 8887450 3486283 3012278
310 8881093 3375360 2965349
311 8942877 3512051 3006934
312 8923918 3480790 2999207
313 8898344 3461954 2987968
314 9006340 3569626 2989284
315 9041761 3527673 2959953
316 8931119 3654354 3089440
317 8911016 3516731 3053373
318 9002152 3606578 3003044
319 9011823 3643832 3068959
320 9036591 3673278 3050132
321 9017700 3705123 3133241
322 9043613 3635451 3035684
323 8955659 3623454 3095821
324 8918128 3561989 3117147
325 8967276 3703379 3137163
326 8936698 3654483 3141584
327 9020177 3717738 3105433
328 9038776 3771083 3125881
329 9161478 3779294 2996709
330 9247890 3926003 3094164
331 9334138 3972133 3066479
332 9436534 4100624 3112931
333 9493609 4180550 3150997
334 9507079 4226305 3133069
335 9454969 4189018 3199503
336 9493520 4171782 3106503
337 9372375 4070804 3139668
338 9547394 4198366 3097956
339 9697838 4480901 3185551
340 9663785 4441122 3212912
341 9666476 4485682 3233163
342 9724490 4432673 3149565
343 9538813 4264217 3172023
344 9327034 4023941 3140607
345 9008434 3679422 3149001
346 8590899 3286843 3126270
347 8342344 2941514 3023532
348 8202343 2914013 3162578
349 8308865 3059130 3153883
350 8553653 3293566 3165535
351 8637766 3431087 3228213
352 8705973 3463436 3209479
353 8740682 3590012 3281986
354 8827499 3582932 3177540
355 8967104 3738765 3187859
356 8906627 3730434 3264826
357 8960319 3829112 3286643
358 9019560 3801552 3291308
359 8988799 3780499 3196344
360 9074620 3852325 3264969
361 9078674 3859340 3211149
362 9051846 3993708 3369108
363 9009207 3976417 3402699
364 9036530 3990526 3364612
365 9033877 3976741 3354872
366 9047273 3979202 3341777
367 9114643 4088959 3397353
368 9197886 4057041 3294248
369 9252157 4178055 3273716
370 9390207 4159759 3208991
371 9376741 4228209 3276929
372 9265480 4115778 3311731
373 9390772 4262733 3290261
374 9286695 4193821 3390635
375 9174785 4090920 3321855
376 9228328 4228633 3367759
377 9337630 4194961 3361110
378 9143739 4205974 3483590
379 9044481 4074010 3452745
380 9190923 4216497 3421093
381 9144553 4216233 3512664
382 9189307 4259655 3484572
383 9184207 4239966 3466804
384 9159161 4166402 3464375
385 9224951 4360255 3541202
386 9180335 4297344 3570159
387 9260059 4370572 3493871
388 9340765 4349586 3441006
389 9284767 4356109 3471345
390 9153352 4340893 3560626
391 9068168 4210930 3558437
392 9248478 4547096 3726554
393 9278503 4500646 3641201
394 9161334 4471151 3713460
395 9054465 4329354 3693772
396 9319602 4474884 3578342
397 9294941 4522721 3647650
398 9350741 4477972 3522697
399 9333328 4504526 3592046
400 9323475 4389327 3531185
401 9330515 4455055 3558572
402 9425170 4482943 3525050
403 9468705 4675561 3583201
404 9337936 4565149 3675097
405 9507618 4630486 3582249
406 9497226 4703643 3610398
407 9453791 4506915 3507313
408 9381284 4547121 3644865
409 9385530 4527987 3586241
410 9421279 4667234 3660926
411 9398528 4580789 3599254
412 9426348 4554703 3511592
413 9363324 4454553 3564345
414 9355380 4410924 3524043
415 9371175 4532433 3625284
416 9415109 4487583 3496852
417 9275444 4413826 3496740
418 9114352 4204830 3583299
419 8912673 4006824 3493121
420 8887399 4032194 3595410
421 8909628 4034355 3516497
422 9055576 4192811 3545849
423 9165301 4107684 3359820
424 8990112 4026218 3419560
425 9058187 4001013 3375596
426 9059703 4027792 3357887
427 9099080 4025538 3409358
428 9020860 3956467 3373309
429 8970598 4066370 3500452
430 9002115 4071690 3449863
431 9172326 4222679 3498146
432 9125926 4130728 3466137
433 9155723 4123845 3397151
434 9146865 4128056 3430204
435 9224754 4154474 3326614
436 9213314 4269702 3413427
437 9161036 4238926 3469930
438 9039005 4201028 3566873
439 9140873 4191402 3434486
440 9319866 4338185 3353794
441 9452941 4274985 3260235
442 9330997 4174264 3298608
443 9285180 4237940 3404203
444 9225153 4151823 3338872
445 9152905 4200949 3424505
446 9087007 4079644 3403835
447 9176989 4214721 3419556
448 9239668 4154679 3335237
449 9201485 4183565 3375124
450 9205700 4145230 3411148
451 9172575 4109021 3356363
452 9235428 4236001 3347276
453 9420120 4215977 3272174
454 9257628 4212725 3385026
455 9142695 4087856 3363767
456 9146807 4127325 3408560
457 9094566 4127856 3521501
458 9022706 4032086 3405460
459 9056043 4143899 3509494
460 9182103 4167980 3404006
461 9174986 4293034 3484951
462 9247052 4269862 3478930
463 9309136 4386717 3458952
464 9281284 4234999 3456475
465 9261935 4216334 3404355
466 9229883 4179793 3405949
467 9172018 4106448 3372694
468 9217735 4157856 3336160
469 9168548 3987914 3241976
470 9272528 3990254 3116600
471 9077033 3813912 3170891
472 8885650 3704539 3206512
473 8812992 3734243 3349401
474 8861156 3755247 3367178
475 8869653 3850723 3431688
476 8974859 3928744 3338599
477 8966801 3941709 3409259
478 9033621 3956958 3360815
479 8907292 3911996 3397179
480 8878537 3881855 3463296
481 8891455 3934930 3434305
482 8898645 4013539 3508651
483 9083211 4046411 3422876
484 9086638 4115668 3399721
485 9017332 3875462 3315365
486 8858922 3872450 3418619
487 8823753 3870451 3469267
488 9072639 3944374 3281354
489 9168246 4079259 3359615
490 9208277 4080761 3284296
491 9164432 4147449 3392622
492 9146448 4116435 3389649
493 9128042 4322828 3571619
494 9209956 4365810 3616974
495 9200259 4318477 3543054
496 9123987 4262403 3579521
497 9139522 4271002 3542980
498 9248668 4413096 3538932
499 9264731 4387119 3488288
500 9385326 4519816 3536676
501 9540620 4570156 3442055
502 9705493 4734352 3444846
503 9475829 4646713 3599346
504 9451719 4664911 3568815
505 9594538 4707729 3532428
506 9718453 4719275 3417369
507 9621533 4821383 3567997
508 9673624 4776063 3515401
509 9725726 4941254 3571147
510 9702188 4908426 3621691
511 9599194 4919340 3737935
512 9304070 4726596 3825449
513 9351933 4607139 3668042
514 9173693 4475129 3678880
515 8784780 4060703 3744022
516 8603039 3999753 3772443
517 8577504 3947702 3807022
518 8495615 3972114 3855914
519 8614736 4145397 3966859
520 8816813 4312030 3920396
521 8800855 4391287 4022280
522 8838144 4384420 3942246
523 8905654 4442362 3885098
524 8916300 4371630 3866650
525 8921036 4472330 3987812
526 8943583 4498463 3952863
527 8999193 4528471 3882761
528 8967792 4471075 3927889
529 9049089 4575591 3931131
530 9040330 4665446 4023541
531 9173557 4617775 3857028
532 9091567 4702341 3973646
533 8938654 4516536 4013534
534 9003355 4665608 4053153
535 9033745 4660780 4024961
536 9090375 4622945 3970340
537 9076103 4631344 3945652
538 9217905 4671673 3893837
539 9097423 4776004 4047534
540 9066373 4618919 3974052
541 9121619 4625648 3862683
542 9280371 4631346 3766407
543 9271428 4579035 3738301
544 9266097 4626881 3724641
545 9279061 4575427 3738708
546 9351240 4708243 3775434
547 9243273 4525951 3735501
548 9221608 4607846 3811471
549 9187174 4522551 3699933
550 9267935 4464864 3625864
551 9164711 4313824 3568573
552 9257846 4400333 3520627
553 9354335 4481070 3529015
554 9334055 4370354 3481480
555 9279246 4473684 3595671
556 9313102 4378989 3498876
557 9286505 4398683 3506908
558 9164870 4308835 3541148
559 9075937 4178868 3514499
560 9097266 4212463 3538307
561 9094033 4121405 3441453
562 9106498 4161904 3464519
563 9125202 4059688 3390481
564 9051500 4048830 3391745
565 9160890 4056237 3353000
566 9266155 4199356 3298251
567 9225572 4159300 3365203
568 9109494 3993245 3331400
569 9162156 4148523 3393327
570 9246897 4098969 3299381
571 9184360 4175891 3395054
572 9263586 4223373 3386325
573 9352856 4325209 3355936
574 9417397 4335199 3359418
575 9440399 4310633 3272184
576 9200077 4196958 3409069
577 9009489 3990269 3420543
578 8767650 3824976 3474766
579 8678138 3670605 3443250
580 8801479 3747320 3362007
581 8723093 3726925 3435526
582 8657773 3728725 3459044
583 8760497 3816840 3472067
584 8969575 3853404 3281127
585 9034380 3919231 3267675
586 8943688 3784492 3321371
587 8881553 3835418 3309505
588 8905692 3777552 3301867
589 9062011 3865400 3246158
590 9003783 3855506 3313481
591 9047135 3872830 3241172
592 8986894 3920245 3342108
593 9047073 3888428 3272587
594 9213905 4062885 3249506
595 9109135 3968975 3301258
596 9180909 4100431 3291246
597 9115592 4034033 3301378
598 9200766 4036302 3228502
599 9191761 4129088 3319425
600 9269133 4128515 3244732
601 9208384 4111866 3325959
602 9132716 4001319 3334582
603 9050999 4072199 3371292
604 9131962 4105364 3380244
605 9189600 4098954 3310246
606 9110115 4030403 3375132
607 9265906 4065437 3175879
608 9426429 4183874 3172720
609 9223906 3927413 3139748
610 9178599 3969158 3202184
611 9189229 3943543 3188452
612 9200636 3986082 3177500
613 9232274 3984735 3207931
614 9404136 4073117 3065108
615 9349999 4091708 3171863
616 9333956 4067143 3150576
617 9396869 4204471 3235496
618 9437863 4205275 3200329
619 9299581 4118135 3207068
620 9102653 3900688 3264559
621 8850287 3658740 3229847
622 8698074 3561333 3226254
623 8881967 3513991 3076658
624 8986891 3720367 3122548
625 9122696 3847900 3126465
626 9261443 4013949 3144073
627 9416738 4232704 3260627
628 9454585 4348771 3280028
629 9571460 4538517 3362846
630 9631784 4679579 3437019
631 9725227 4992687 3630014
632 9773823 5062407 3719014
633 9910228 5502359 3961038
634 10066678 5672827 4055042
635 10170414 5992653 4229183
636 10280488 6375705 4504645
637 10468769 6655210 4567001
638 10663387 7067787 4788071
639 10863902 7289008 4790914
640 10861429 7332504 4807310
641 10868786 7109159 4690499
642 10819016 7012783 4579760
643 10615672 6538612 4295731
644 10439327 6135660 4094582
645 10296464 5995684 4102987
646 10277431 5767395 3869928
647 10112036 5549459 3818951
648 10014822 5369453 3745058
649 9927092 5327706 3706690
650 9760834 5043232 3695959
651 9485186 4933388 3847026
652 9378527 4786207 3828097
653 9143673 4569842 3827329
654 8917875 4394038 3924506
655 8757438 4085156 3746558
656 8709690 4082835 3762042
657 8840139 4045466 3609562
658 8855050 3999615 3498542
659 8858796 3900608 3450926
660 8899093 3965600 3436015
661 9042109 4037626 3358615
662 9068868 3924667 3335278
663 9000293 4012096 3423156
664 9033442 3968829 3343095
665 8994205 4010411 3384724
666 8977794 3933879 3414397
667 9058065 4005226 3335951
668 9112568 3995968 3324935
669 8980064 3907796 3298378
670 9124947 3988123 3248499
671 9267792 3920590 3135381
672 9218833 4061191 3219036
673 9285996 4074716 3257591
674 9194795 4102709 3312028
675 9124437 4069965 3322271
676 9183747 4097886 3321156
677 9272286 4217371 3283241
678 9440280 4163972 3181624
679 9232698 4168896 3314005
680 9231213 4098226 3284796
681 9220363 4145646 3258603
682 9258831 4162538 3295871
683 9086025 4012230 3299738
684 8977041 3999201 3420319
685 9014492 3916226 3317354
686 8980535 3949861 3356310
687 9034170 3895043 3309707
688 8981543 3962065 3369108
689 8969758 3861462 3291709
690 8987714 3876187 3269979
691 8994139 3993555 3372900
692 9054664 3982878 3331192
693 8964489 3993175 3400298
694 9025960 3868758 3312342
695 9091718 4027313 3296972
696 9115155 4026093 3344296
697 9040273 4064390 3424732
698 9029379 4021567 3422877
699 9070491 4048657 3383871
700 9153060 4110088 3408012
701 9277915 4207628 3359331
702 9256182 4301827 3469972
703 9245948 4271524 3458906
704 9215696 4272491 3425552
705 9159374 4184654 3435301
706 9265036 4201202 3333016
707 9295430 4328942 3436283
708 9351280 4283535 3389944
709 9469998 4368022 3347191
710 9368453 4258744 3335312
711 9336356 4367709 3416923
712 9394942 4344527 3364242
713 9331922 4350272 3394333
714 9464673 4386395 3372092
715 9509132 4389490 3300363
716 9372616 4441050 3482095
717 9255695 4291107 3483682
718 9143646 4268458 3484526
719 9121317 4209996 3466921
720 9129252 4314643 3590416
721 9071486 4260004 3582377
722 9040462 4295640 3615841
723 9090372 4260072 3578530
724 9090112 4174673 3466697
725 9167233 4305921 3532804
726 9098289 4209059 3567745
727 9057703 4308726 3667185
728 9058700 4171456 3548024
729 9104247 4217570 3473426
730 9147602 4197290 3431275
731 9160567 4171879 3441326
732 9173782 4233185 3412197
733 9132369 4173276 3480701
734 9197401 4313115 3505335
735 9158880 4259662 3527642
736 9119564 4324012 3592880
737 9241869 4426496 3563204
738 9267833 4453331 3608745
739 9255753 4488006 3657697
740 9299510 4459268 3572744
741 9223909 4494614 3660595
742 9169015 4372433 3568556
743 9360711 4572252 3601653
744 9345740 4490248 3598572
745 9252217 4458671 3603101
746 9146582 4403315 3662465
747 9227187 4398333 3569342
748 9177627 4422142 3616475
749 9249001 4363195 3528822
750 9269029 4509171 3552027
751 9316330 4448158 3525759
752 9354245 4499774 3520727
753 9321605 4488404 3564335
754 9325393 4618766 3672126
755 9286911 4591487 3746641
756 9256388 4498960 3697809
757 9183317 4586355 3765356
758 9225886 4556184 3717181
759 9313085 4659888 3686080
760 9303178 4515039 3656966
761 9277698 4504795 3591899
762 9291250 4590311 3665810
763 9361368 4582826 3598206
764 9292015 4683691 3738135
765 9503338 4668041 3588483
766 9418053 4793885 3699067
767 9594882 4849643 3667742
768 9651302 4920443 3644462
769 9637450 4934088 3758725
770 9475190 4906735 3845879
771 9635943 5146033 3888757
772 9543148 5037670 3857141
773 9594591 5167713 3902004
774 9718272 5156559 3820657
775 9719251 5246183 3908268
776 9667316 5182282 3923416
777 9741824 5331336 3993470
778 9928055 5550552 4021300
779 9989732 5519617 3911804
780 9767951 5466916 4083648
781 9567973 5129328 4022597
782 9499662 5089835 3984248
783 9406861 4901097 3917629
784 9305067 4966401 4021792
785 9144060 4841580 4080880
786 9057918 4674241 3970567
787 9019069 4714676 4074502
788 9060496 4686372 4001988
789 9108632 4747855 4031102
790 9220018 4760475 3920840
791 9367170 4942728 3933113
792 9391976 4865398 3913114
793 9197042 4776909 3955355
794 9179393 4683521 3922103
795 9363902 4701124 3785457
796 9406262 4929065 3917342
797 9440276 4939753 3920287
798 9556175 5028077 3846290
799 9514327 4955280 3895984
800 9426016 4943094 3943443
801 9436741 5012145 4060266
802 9319820 4992410 4051639
803 9327779 4969940 4036589
804 9290114 4887515 3990728
805 9320167 5013643 4101966
806 9402957 5058882 4059952
807 9412084 5119098 4077981
808 9430054 5109128 4095035
809 9433083 5053026 4016038
810 9305203 5022985 4128249
811 9374846 5085373 4101688
812 9435183 5134311 4079538
813 9281566 4909937 4103734
814 9250859 4964850 4042114
815 9189423 4844467 4084595
816 9145581 4953828 4166491
817 9183971 4957715 4179134
818 9313463 5037260 4115337
819 9412988 5138388 4120126
820 9369269 5067399 4104816
821 9368466 5132585 4161276
822 9366744 5069311 4178928
823 9372044 5141985 4157151
824 9305084 5034244 4150427
825 9331695 4960107 4004923
826 9272682 4925633 4023694
827 9354460 4886254 3889579
828 9441616 5008796 3916806
829 9445066 4896353 3885092
830 9234033 4776153 3921567
831 9402964 4719591 3718197
832 9424543 4741510 3691070
833 9276653 4754343 3835800
834 9328105 4729266 3812725
835 9287457 4886171 3976824
836 9377751 4967757 3961947
837 9577376 5067032 3823075
838 9599394 4992807 3805972
839 9598080 5080701 3868750
840 9498425 5044714 3951974
841 9591877 5116539 3865130
842 9578403 5145044 3947360
843 9597948 5057907 3850148
844 9571305 5121492 3901860
845 9568136 5061482 3867812
846 9537045 5071736 3879798
847 9616583 5043842 3793784
848 9674889 5000180 3687204
849 9609502 4940341 3699547
850 9575363 4898551 3691564
851 9526206 4939203 3777011
852 9252833 4646733 3794183
853 9087317 4561318 3802304
854 9073574 4454201 3797742
855 9012913 4487731 3876110
856 9071907 4584058 3905509
857 9155691 4629452 3812213
858 9222489 4744358 3890456
859 9165473 4667444 3882139
860 9295516 4768190 3828669
861 9339583 4697328 3786468
862 9386514 4776402 3774560
863 9328953 4780943 3829218
864 9323689 4735583 3759272
865 9283106 4757863 3896506
866 9267802 4679902 3861637
867 9187812 4712670 3934922
868 9217056 4719569 3919084
869 9241105 4787631 3927653
870 9148782 4731660 3979985
871 9231712 4767086 3895917
872 9221295 4722883 3926623
873 9275361 4740451 3883658
874 9305452 4890460 3954674
875 9361890 4820444 3835563
876 9411684 4854632 3823092
877 9402101 4806357 3792001
878 9499239 4899070 3839057
879 9420824 4897749 3919490
880 9488449 4909631 3793805
881 9464741 4973642 3863562
882 9473087 4920588 3843752
883 9517989 5057902 3911776
884 9464264 5027571 3946682
885 9575080 5048581 3797719
886 9438546 4877117 3799848
887 9385362 4904400 3887030
888 9399329 4957971 3938382
889 9523901 5006610 3854823
890 9642454 5192003 3906611
891 9700980 5141995 3920556
892 9629326 5173268 3942576
893 9516792 5107712 4001815
894 9480418 5106812 3968375
895 9523747 5019778 3878990
896 9325016 4826011 3880902
897 9091381 4748393 4057862
898 9236816 4861936 4031148
899 9065999 4900907 4141036
900 9018513 4703918 4067037
901 9040975 4726133 4029386
902 9184657 4936716 4092742
903 9341390 4937630 3978309
904 9319798 4974003 4052966
905 9410525 4967554 3983153
906 9310793 5031959 4014631
907 9383534 4931968 4006213
908 9364447 5026555 4073443
909 9407074 5042328 4032421
910 9391201 4961679 3983123
911 9263180 4898521 4028174
912 9120135 4711721 4010062
913 8890552 4641714 4101873
914 9026583 4714064 4137499
915 8894213 4806208 4285022
916 9032507 4783263 4141337
917 9122928 4834371 4063569
918 9180577 4990084 4200129
919 9245103 5025266 4219914
920 9245273 5152753 4291047
921 9227331 5131755 4265470
922 9335041 5251834 4266877
923 9395507 5245502 4248022
924 9415422 5337186 4259605
925 9495140 5375205 4250591
926 9486444 5337617 4266348
927 9283608 5325137 4409199
928 9221544 5197086 4395779
929 9186476 5231915 4452196
930 9231452 5248710 4405290
931 9378812 5451426 4419819
932 9398825 5362697 4378671
933 9412198 5419982 4378445
934 9368601 5397187 4441056
935 9346680 5374545 4413867
936 9359498 5449097 4460444
937 9363480 5463978 4505800
938 9409638 5559203 4494601
939 9356249 5472647 4533293
940 9351648 5559769 4568116
941 9346133 5514293 4577399
942 9365248 5408762 4452816
943 9317698 5389601 4473032
944 9397231 5310940 4313032
945 9430990 5432634 4304266
946 9412694 5318993 4320680
947 9499577 5476129 4303622
948 9470781 5412104 4340552
949 9513453 5325442 4209921
950 9392467 5229627 4206994
951 9519799 5243290 4129296
952 9350134 5185511 4169322
953 9212968 4971524 4161116
954 9246209 5106622 4215013
955 9185810 4928223 4147487
956 9137973 4914315 4119181
957 9182488 4900968 4125491
958 9235041 4932006 4103367
959 9082577 4933244 4210281
960 9226803 4923546 4073291
961 9239417 4915740 4081373
962 9303613 4844465 3942554
963 9363114 4901187 3890459
964 9295165 4823228 3954265
965 9385431 4883760 3856151
966 9337867 4925546 3994686
967 9347203 4924723 3967524
968 9393682 4982699 3938914
969 9453693 4835765 3753872
970 9511528 4876955 3740211
971 9323704 4780591 3887061
972 9397401 4879583 3841409
973 9377883 4929186 3923547
974 9530439 4923947 3811257
975 9540211 5071404 3914847
976 9595484 5022232 3848208
977 9640348 5158767 3874646
978 9643681 5178290 3923328
979 9492176 5074831 3941881
980 9302479 4833304 3896139
981 9348830 4749814 3777084
982 9134789 4550856 3854971
983 8990492 4326194 3721300
984 9026192 4350386 3691542
985 9054082 4392747 3782343
986 9049380 4500013 3821273
987 9067120 4492703 3855316
988 9015372 4483741 3867276
989 8993961 4528138 3956349
990 9146452 4555449 3783870
991 9180616 4556331 3739772
992 9218447 4471063 3657558
993 9242543 4614408 3718988
994 9215300 4556266 3776233
995 9231935 4604759 3722024
996 9191756 4655021 3852068
997 9297972 4602295 3742478
998 9141804 4559750 3789504
999 9011692 4428912 3818245
1000 9036709 4527403 3864733
1001 9185973 4559702 3737091
1002 9217118 4618740 3747361
1003 9304592 4649268 3745758
1004 9313351 4631897 3743992
1005 9315789 4715400 3788878
1006 9388066 4639871 3681418
1007 9312373 4769470 3831371
1008 9354593 4624600 3705679
1009 9388100 4742643 3747710
1010 9476284 4830087 3758853
1011 9398146 4692334 3645502
1012 9186187 4472201 3701730
1013 9039323 4280236 3668268
1014 8851225 4213031 3779883
1015 8857920 4233314 3739696
1016 8903781 4301045 3737045
1017 8981988 4354831 3756299
1018 9073187 4443248 3721793
1019 9024568 4469799 3833551
1020 9089258 4398209 3719812
1021 9088080 4439356 3765094
1022 9079170 4393746 3724948
1023 9088878 4495758 3721468
1024 9105502 4406826 3689086
1025 9182107 4467836 3674455
1026 9137165 4436370 3691142
1027 9209984 4483613 3601277
1028 9269505 4597376 3736861
1029 9461720 4752956 3700855
1030 9546021 4959968 3765954
1031 9525289 4935200 3846354
1032 9577943 5085709 3899030
1033 9607110 5187065 3991849
1034 9860542 5435590 3921641
1035 9935317 5653026 4120071
1036 10173840 5914245 4144154
1037 10235179 6244614 4386232
1038 10319786 6473801 4539639
1039 10509903 6829714 4648301
1040 10654268 7018526 4767162
1041 10719787 7275043 4895175
1042 10759072 7556717 5179581
1043 10836129 7816862 5278618
1044 10821508 7887932 5395659
1045 10877323 7727366 5172571
1046 10780257 7542879 5059926
1047 10694921 7098500 4780485
1048 10540001 6813836 4645850
1049 10456636 6506789 4428706
1050 10415045 6229177 4167473
1051 10312918 6116158 4185227
1052 10115456 5854448 4136035
1053 9845174 5718794 4250735
1054 9731104 5530274 4243635
1055 9643595 5586582 4306262
1056 9535348 5522456 4361385
1057 9489764 5424299 4320520
1058 9388850 5334766 4309226
1059 9349599 5189035 4220342
1060 9190363 5042440 4212933
1061 9100380 4781488 4048424
1062 9082799 4729236 3956120
1063 9086070 4548567 3860531
1064 9178723 4599039 3815768
1065 9108833 4549983 3863119
1066 9071734 4484182 3774976
1067 9073373 4458571 3797995
1068 9069735 4410296 3707834
1069 9179820 4533783 3754709
1070 9215606 4504202 3711710
1071 9249566 4707470 3816064
1072 9129374 4588358 3895242
1073 9222928 4643917 3776046
1074 9331369 4648719 3751862
1075 9331982 4646409 3671330
1076 9171739 4570903 3742826
1077 9051748 4427621 3778539
1078 9045501 4501229 3837198
1079 9003953 4352016 3831781
1080 8869862 4306401 3830846
1081 8926200 4374205 3844654
1082 8948157 4352638 3802031
1083 8964072 4449539 3862204
1084 9013645 4386939 3734068
1085 9092123 4488839 3787695
1086 9002048 4334789 3720674
1087 8971856 4260750 3641720
1088 8935707 4184993 3691951
1089 8931274 4186288 3640706
1090 8892597 4202053 3713032
1091 8977871 4243289 3648585
1092 8975299 4271996 3653921
1093 8905366 4155574 3701665
1094 8912427 4259652 3721180
1095 8914221 4244581 3784924
1096 8949154 4333484 3782793
1097 8900812 4364149 3860072
1098 9058388 4472228 3798388
1099 9093604 4571307 3861953
1100 9116645 4513329 3783059
1101 9083544 4522024 3809772
1102 9147530 4530000 3765756
1103 9264538 4696785 3782236
1104 9280786 4778450 3888768
1105 9235600 4705095 3893025
1106 9122430 4647201 3901441
1107 9161434 4538046 3793936
1108 9085303 4514356 3798808
1109 9138296 4544935 3802130
1110 9161162 4646367 3875157
1111 9178659 4652672 3840484
1112 9219957 4628522 3806455
1113 9068181 4599967 3933295
1114 8922389 4440129 3941503
1115 8833905 4431253 3935736
1116 8921308 4358712 3844067
1117 8884506 4391581 3835235
1118 8883812 4378299 3913439
1119 8895613 4397964 3882026
1120 8831232 4434069 3963321
1121 9018846 4477437 3811059
1122 9112559 4611263 3844687
1123 9132806 4554684 3842942
1124 9128968 4703038 3954920
1125 9096782 4702516 4011025
1126 9037243 4662483 4005161
1127 9054239 4646579 3980353
1128 9070776 4666007 3987432
1129 9067719 4739208 4062308
1130 9091142 4681349 3999398
1131 9061449 4755506 4025175
1132 9162913 4763284 3994600
1133 9158293 4838121 4050992
1134 9209513 4884219 4052717
1135 9221540 4874080 3977821
1136 9184232 4754211 4018538
1137 8929845 4523375 3980718
1138 8861646 4564885 4096448
1139 8869273 4492795 4023873
1140 8850860 4575592 4085752
1141 8868676 4574412 4104758
1142 8921518 4676698 4115556
1143 8969348 4733648 4132687
1144 8994007 4661477 4061538
1145 9004522 4694593 4079241
1146 9070118 4658396 3987613
1147 9091784 4770042 4042558
1148 9146551 4713641 3990465
1149 9228022 4833899 3974837
1150 9131788 4859678 4098290
1151 9100396 4857780 4157304
1152 9125296 4888909 4082570
1153 9220552 4828846 3975861
1154 9236272 4973271 4056679
1155 9429299 5064834 4030044
1156 9506410 5237242 4050999
1157 9510168 5137478 4062075
1158 9416134 5198749 4143207
1159 9268970 5176406 4331007
1160 9207014 5046889 4239907
1161 9147162 5006898 4233802
1162 8965106 4770133 4192900
1163 9020164 4812290 4191569
1164 9031358 4818493 4199245
1165 9038364 4918733 4265803
1166 9013639 4911262 4306165
1167 9051951 4910355 4212419
1168 9079437 4980761 4286744
1169 9120713 4930486 4175132
1170 9184600 5099302 4241050
1171 9339715 5170305 4250458
1172 9269498 5211930 4269874
1173 9102972 5012211 4309926
1174 9035199 4977603 4356815
1175 9129531 5090323 4326488
1176 9167920 5045365 4294648
1177 9127673 5063967 4339689
1178 9273671 5124437 4246251
1179 9368840 5363422 4375062
1180 9305104 5393528 4438659
1181 9344292 5429497 4453850
1182 9308875 5436813 4525658
1183 9376531 5430942 4410822
1184 9390409 5502272 4452407
1185 9336251 5398738 4466582
1186 9222928 5389471 4509410
1187 9233853 5265282 4411928
1188 9086204 5172051 4454380
1189 9035208 5074374 4429908
1190 8954295 4955697 4397796
1191 8972023 5021031 4473299
1192 8994901 5094283 4444053
1193 9130748 5291344 4506921
1194 9185625 5292363 4507878
1195 9157237 5385253 4573898
1196 9100004 5282947 4576520
1197 9037522 5212268 4570940
1198 9081258 5280550 4566382
1199 9137503 5283948 4517047
1200 9203349 5437290 4619058
1201 9195449 5316626 4539457
1202 9049807 5266074 4574879
1203 9019503 5155555 4564875
1204 8952696 5232859 4575934
1205 9078540 5298281 4612750
1206 9056282 5383006 4652393
1207 9153109 5426326 4620801
1208 9154314 5272157 4514416
1209 9060575 5362374 4658403
1210 9124431 5329031 4596832
1211 9150999 5393861 4637440
1212 9134384 5375560 4602585
1213 9198023 5394699 4598392
1214 9225915 5435611 4622890
1215 9243153 5451823 4569278
1216 9260087 5561090 4648526
1217 9294551 5463253 4580500
1218 9250075 5510386 4618226
1219 9212222 5406340 4624185
1220 9115065 5404875 4627811
1221 9139786 5355468 4615781
1222 9097596 5381726 4649732
1223 9068592 5410642 4733957
1224 9096305 5344504 4587569
1225 9245553 5340021 4497366
1226 9236988 5290919 4451888
1227 9189071 5335479 4491785
1228 9225800 5213310 4418645
1229 9102342 5215714 4481216
1230 9053560 5213915 4572039
1231 9154112 5298072 4481202
1232 9231040 5351321 4505690
1233 9266658 5289480 4408503
1234 9332972 5364926 4407228
1235 9291153 5306846 4401709
1236 9187646 5348575 4510892
1237 9200150 5299897 4478180
1238 9243172 5353034 4500239
1239 9248269 5422007 4514118
1240 9411114 5462254 4418226
1241 9434094 5501988 4411649
1242 9423230 5451049 4484776
1243 9295347 5400180 4474754
1244 9286925 5201637 4340124
1245 9294108 5206606 4277505
1246 9152526 5116880 4370219
1247 9124486 5072164 4324371
1248 9005978 5020923 4352731
1249 8971950 4822022 4235450
1250 8936907 4869784 4313764
1251 8936952 4819211 4316202
1252 8963975 4923286 4309820
1253 8984040 4894312 4283339
1254 8968942 4856989 4287965
1255 8924482 4927345 4427577
1256 8928811 4878136 4341840
1257 8911268 4921844 4342032
1258 8918921 4831568 4324921
1259 8892780 4944152 4399359
1260 8877550 4886221 4388068
1261 8912423 4911863 4359283
1262 8969952 4872929 4336361
1263 9026786 4881979 4269662
1264 9031400 5011827 4335243
1265 9083637 4993574 4233307
1266 9057637 4979172 4263781
1267 9012325 4906932 4267392
1268 9061578 4968334 4274537
1269 9078341 4981931 4283058
1270 9087668 4972594 4261653
1271 9049424 5086936 4377021
1272 9083044 5013586 4334771
1273 9118072 5134201 4375437
1274 9148758 5077615 4327210
1275 9157243 5126172 4322932
1276 9225179 5165289 4329345
1277 9276189 5189961 4278560
1278 9241045 5249865 4370439
1279 9230894 5231650 4342885
1280 9202065 5297484 4468273
1281 9213174 5176987 4377333
1282 9191534 5210324 4373904
1283 9146054 5099333 4386855
1284 8959862 5028459 4383010
1285 8919749 4956568 4426594
1286 8973638 4898485 4344794
1287 8936805 4980794 4387121
1288 9021016 4961043 4291840
1289 9107282 5035051 4234952
1290 9107737 4882145 4222716
1291 9025475 4947410 4257250
1292 9032624 4949220 4295357
1293 9138640 5005811 4230493
1294 9145072 5104820 4285602
1295 9029455 4956736 4328343
1296 9022219 5104632 4424236
1297 9018068 5036290 4429391
1298 9011944 5056244 4410619
1299 9024685 5128057 4479757
1300 9059953 5172272 4493253
1301 9103319 5231530 4503499
1302 9149647 5214078 4473543
1303 9197424 5351360 4480089
1304 9151386 5243557 4469308
1305 9155845 5301620 4552431
1306 9011524 5123056 4523437
1307 8984564 5039246 4419132
1308 8994995 5118352 4466235
1309 8998079 5102743 4475851
1310 9013625 5223601 4535512
1311 9068636 5204451 4522202
1312 9132946 5340369 4584929
1313 9184869 5313976 4522026
1314 9244261 5398212 4491997
1315 9182951 5377751 4583996
1316 9134307 5268040 4527722
1317 8950343 5230160 4643784
1318 8831078 5037896 4591899
1319 8822116 5173650 4701466
1320 8878469 5157606 4679794
1321 8916053 5244648 4670060
1322 8934831 5204571 4639899
1323 8899377 5182399 4671889
1324 8863741 5223749 4692606
1325 9004900 5200462 4572923
1326 9033149 5309127 4688988
1327 9143935 5346304 4657499
1328 9185539 5456341 4657809
1329 9166759 5471880 4711907
1330 9124710 5542891 4777599
1331 9191484 5608187 4800339
1332 9265148 5617944 4745559
1333 9185274 5767238 4865340
1334 9299950 5760285 4858307
1335 9312826 5909080 4936719
1336 9355999 5909721 4949432
1337 9409887 5943978 4905856
1338 9393007 6024612 5020783
1339 9467839 6064266 4965867
1340 9310828 6017730 5034915
1341 9175372 5747055 4959607
1342 9145021 5735940 4975381
1343 9062934 5617506 4910144
1344 8948216 5457828 4848915
1345 8863891 5338203 4882237
1346 8796674 5254973 4794565
1347 8744487 5217986 4845313
1348 8753362 5155008 4790527
1349 8837909 5285297 4806296
1350 8888313 5247270 4747513
1351 8913150 5267795 4708265
1352 8875052 5246393 4740846
1353 9055342 5339875 4638542
1354 9150626 5428113 4662247
1355 9063070 5336881 4688636
1356 8997090 5421998 4747299
1357 9104249 5350568 4621743
1358 9142174 5474881 4684868
1359 9158581 5408819 4651117
1360 9118539 5344834 4605935
1361 9065130 5286035 4613630
1362 9171873 5252414 4454548
1363 9208514 5348740 4483382
1364 9179001 5185085 4439273
1365 9132703 5282608 4523603
1366 9104941 5140305 4483581
1367 9019285 5135147 4437349
1368 8899333 4992002 4502051
1369 8832369 4874328 4376947
1370 8836142 4902931 4418054
1371 8827588 4752864 4348152
1372 8873321 4850917 4343756
1373 8810482 4778836 4375097
1374 8884863 4933981 4408934
1375 8930683 4929669 4384116
1376 8928151 4900462 4315994
1377 8953518 5012805 4378143
1378 8967831 4888919 4364205
1379 8893400 5001497 4408915
1380 8971274 4963321 4357638
1381 9044763 4966731 4278504
1382 8938215 4880965 4307573
1383 9015797 4950424 4256029
1384 9102116 5053535 4319990
1385 9186259 5062319 4242752
1386 9204831 5182238 4306149
1387 9220849 5086531 4232548
1388 9189112 5062921 4220093
1389 9162696 5004546 4229565
1390 9189110 5031041 4190120
1391 9084043 4920174 4222750
1392 9112917 4941073 4192077
1393 9115837 5082207 4255114
1394 9181295 5028830 4220728
1395 9079128 5036742 4283579
1396 9101010 4961462 4287698
1397 9162153 5027005 4250186
1398 8997359 5035372 4404323
1399 8906639 4895120 4365969
1400 8678958 4625483 4371725
1401 8470666 4420074 4363175
1402 8494554 4514410 4385382
1403 8594931 4508562 4292376
1404 8686721 4551575 4255902
1405 8739514 4620937 4281694
1406 8814250 4681376 4178011
1407 8896965 4730693 4216922
1408 8891199 4700738 4235944
1409 8850677 4811917 4302266
1410 8897982 4792243 4278188
1411 8918961 4847728 4259169
1412 9061144 4900150 4275561
1413 9072176 4896274 4225459
1414 9071643 4918419 4262662
1415 8969401 4796013 4222957
1416 8890253 4826345 4333908
1417 8905740 4843017 4271664
1418 8993042 4873966 4196651
1419 9012710 4725424 4166243
1420 8906248 4645214 4112233
1421 8879043 4654211 4172400
1422 8787256 4482420 4118696
1423 8700033 4503928 4143359
1424 8705286 4427102 4126056
1425 8758770 4514336 4115497
1426 8923808 4566571 4051675
1427 8861347 4600951 4126347
1428 8800503 4663847 4268397
1429 8802599 4625682 4131857
1430 8977494 4782132 4131415
1431 8970878 4750821 4120143
1432 9019400 4903731 4213375
1433 9123969 5057766 4297043
1434 9205243 5192914 4364708
1435 9214335 5209364 4411446
1436 9383283 5365857 4344678
1437 9483220 5566113 4442286
1438 9516187 5513357 4387299
1439 9604304 5775842 4526750
1440 9705552 5948433 4653181
1441 9811835 6239683 4725831
1442 9974291 6455015 4864167
1443 10158849 6730733 4953982
1444 10229871 7053575 5206280
1445 10299956 7262815 5287455
1446 10308203 7551960 5563193
1447 10491668 7708457 5607661
1448 10591987 7916661 5616821
1449 10650344 7887679 5616045
1450 10695029 7917209 5556915
1451 10579811 7688465 5465347
1452 10446814 7377711 5246596
1453 10297584 7079405 5126059
1454 10279992 6758011 4849419
1455 10164762 6646477 4816082
1456 10051479 6414639 4757711
1457 9958150 6278337 4646904
1458 9791719 6105029 4692187
1459 9659451 6015433 4765696
1460 9435834 5902562 4792503
1461 9409067 5682094 4695274
1462 9292803 5697275 4771637
1463 9278419 5573613 4651272
1464 9342091 5592569 4595100
1465 9300037 5399688 4427443
1466 9240485 5210958 4333461
1467 9158496 5083093 4310529
1468 8967266 4727473 4193809
1469 8615745 4547496 4281754
1470 8436831 4276665 4259307
1471 8234045 4199678 4325814
1472 8276177 4142452 4258478
1473 8443421 4246345 4165893
1474 8431910 4348417 4269502
1475 8481604 4359496 4262217
1476 8539620 4517614 4321859
1477 8768762 4632780 4209328
1478 8767187 4772602 4360561
1479 8707291 4717285 4431102
1480 8685207 4730605 4375025
1481 8666972 4773473 4467562
1482 8675639 4753288 4444704
1483 8747913 4815571 4440716
1484 8913202 4764199 4245663
1485 8838372 4787505 4311604
1486 8810825 4778684 4331099
1487 8758111 4781684 4345380
1488 8742011 4578106 4248725
1489 8779793 4564555 4134453
1490 8799487 4599728 4192253
1491 8853397 4591637 4152163
1492 8817098 4744369 4273423
1493 8839598 4677000 4253447
1494 8876203 4773434 4227066
1495 8946943 4778565 4264031
1496 8982354 4834686 4179894
1497 8997730 4864912 4243165
1498 9008160 4842489 4218443
1499 8989026 4977650 4351909
1500 9052276 4974444 4280947
1501 9068900 5112717 4394617
1502 9063569 5060601 4388637
1503 9033666 4969312 4313548
1504 8930411 4861054 4338555
1505 8904752 4808074 4261554
1506 8945559 4909727 4324473
1507 8887852 4811276 4276716
1508 8856053 4868519 4300171
1509 8844393 4755090 4319309
1510 8851999 4776442 4246815
1511 8819683 4698403 4258776
1512 8795034 4606212 4208179
1513 8600665 4479368 4304586
1514 8602610 4474799 4292928
1515 8740531 4716911 4326607
1516 8822538 4787296 4366734
1517 8846455 4887797 4395179
1518 8787027 4832529 4427692
1519 8884582 4890837 4371848
1520 8877229 4965095 4468382
1521 8890810 4900049 4430595
1522 8884042 5047417 4509096
1523 8959826 5062257 4449699
1524 9014870 5143521 4471559
1525 9025534 5156547 4499968
1526 9057841 5185880 4458831
1527 9033165 5129361 4475825
1528 9063249 5104745 4398681
1529 9100672 5232892 4473500
1530 9231852 5185296 4360786
1531 9170188 5294490 4488392
1532 9160343 5262896 4481205
1533 9170603 5342182 4523908
1534 9241360 5362740 4534519
1535 9308525 5456506 4501494
1536 9218929 5401559 4596208
1537 9083227 5117495 4483074
1538 8841198 5070021 4537295
1539 8640634 4758599 4590802
1540 8485539 4626056 4545643
1541 8443594 4595810 4555669
1542 8506364 4637749 4495736
1543 8538714 4783584 4608883
1544 8600156 4780626 4563698
1545 8653136 4939980 4631070
1546 8727294 4934366 4544135
1547 8778419 4994480 4582734
1548 8821031 4947670 4523046
1549 8849710 4926082 4429372
1550 8832242 5069253 4620530
1551 8881435 5050790 4552783
1552 8887696 5128133 4609101
1553 8818391 5021282 4597200
1554 8824941 5156549 4655253
1555 8803453 5136840 4676968
1556 8902375 5109092 4619672
1557 8859653 5182382 4686273
1558 8902370 5171086 4640267
1559 8835118 5233494 4725319
1560 8861386 5123777 4635259
1561 8888939 5258730 4693909
1562 8944830 5204744 4674165
1563 8951939 5306315 4693130
1564 8931277 5212395 4697342
1565 8963559 5242531 4632221
1566 8882060 5251757 4740601
1567 8896067 5245664 4705302
1568 8951549 5405680 4814305
1569 8851488 5275260 4792222
1570 8962870 5377906 4731559
1571 9076886 5401212 4699914
1572 9165067 5448087 4637645
1573 9142317 5498120 4717663
1574 9157425 5484197 4678610
1575 9143827 5576962 4796705
1576 9161520 5543801 4735179
1577 9175905 5634324 4793281
1578 9168745 5666622 4856475
1579 9324514 5738420 4787266
1580 9215676 5753684 4881850
1581 9274248 5734402 4838681
1582 9288089 5829005 4888630
1583 9336523 5808449 4844221
1584 9252999 5771479 4854824
1585 9171404 5631277 4844271
1586 9169674 5519142 4709841
1587 9070053 5434247 4763512
1588 8940901 5396282 4809733
1589 8880509 5434359 4968807
1590 8820490 5421296 4978858
1591 8768631 5500323 5026381
1592 8792643 5454068 5074192
1593 8882594 5608835 5036021
1594 9000858 5644051 5012415
1595 8993357 5529295 4901616
1596 9026852 5596852 4914856
1597 9141461 5669590 4855190
1598 9170245 5796669 5017694
1599 9164683 5701705 4945369
1600 9147687 5744073 4909499
1601 9199949 5732459 4902956
1602 9196293 5722129 4880542
1603 9105912 5604617 4875463
1604 8929987 5406715 4843400
1605 8911165 5506581 4931634
1606 8860114 5415965 4917557
1607 8898544 5493946 4944432
1608 8951739 5424579 4830471
1609 8980871 5503586 4817308
1610 9071675 5539090 4860484
1611 9112005 5604538 4862741
1612 9200456 5740051 4895582
1613 9183187 5589345 4818251
1614 9029617 5625970 4931106
1615 8985944 5556258 4947588
1616 9035869 5651475 4959592
1617 8993842 5635251 5001586
1618 9086963 5626839 4900439
1619 9076846 5663211 4964101
1620 9083789 5578729 4887597
1621 9070089 5747618 5002098
1622 9121250 5650675 4933917
1623 9106544 5741071 4968562
1624 9172371 5748448 4999969
1625 9202837 5782256 4936986
1626 9192377 5747767 4909928
1627 9041474 5545901 4854985
1628 8809851 5445624 4934396
1629 8836026 5397603 4924848
1630 8815352 5497086 4992188
1631 8915320 5409366 4883359
1632 9042583 5556612 4836791
1633 9039817 5542322 4915273
1634 9130225 5584196 4802101
1635 9114589 5573422 4798548
1636 9077071 5473518 4806521
1637 9104178 5658387 4894956
1638 9144756 5566269 4837618
1639 9139858 5638855 4821665
1640 9087000 5589886 4871554
1641 9090962 5528725 4774865
1642 9015159 5488013 4865434
1643 8987680 5454103 4833186
1644 8889495 5397507 4840187
1645 8808666 5181993 4789581
1646 8933552 5382778 4755471
1647 8948684 5308010 4750940
1648 8941433 5338300 4762708
1649 8977535 5344837 4748050
1650 8927862 5312461 4723715
1651 8862485 5274139 4785298
1652 8986121 5300010 4694399
1653 8946558 5387614 4770590
1654 8953149 5281721 4717185
1655 8960873 5244935 4619310
1656 8850929 5116436 4666184
1657 8889657 5182038 4639390
1658 8876965 5376434 4829688
1659 8914613 5270874 4779038
1660 8865781 5288861 4726367
1661 8893362 5252563 4727029
1662 9004047 5361292 4702449
1663 9022910 5355224 4748116
1664 8981794 5348140 4690247
1665 8995479 5433864 4765531
1666 8920595 5317371 4717437
1667 8920621 5367917 4749454
1668 8992753 5299144 4687208
1669 8961113 5315176 4703026
1670 8968351 5317354 4716823
1671 9008696 5413670 4717797
1672 9014371 5400525 4777493
1673 9020279 5376451 4699310
1674 9026906 5491145 4820778
1675 9045608 5395368 4724435
1676 9157515 5562522 4765050
1677 9187976 5619878 4786748
1678 9083716 5567014 4795325
1679 9069974 5486829 4773070
1680 9033000 5449328 4753431
1681 9011226 5519366 4875558
1682 9045522 5510102 4814334
1683 9154405 5606658 4832023
1684 9133092 5588613 4798071
1685 9238860 5749213 4814840
1686 9245126 5684311 4853795
1687 9188414 5635796 4818775
1688 9051987 5571213 4868621
1689 8814924 5202137 4753539
1690 8583858 5088880 4845123
1691 8543280 4989614 4828539
1692 8647635 5116484 4812431
1693 8706641 5116659 4800782
1694 8754585 5105687 4714977
1695 8705259 5102024 4749483
1696 8791651 5151595 4711996
1697 8768494 5199303 4781699
1698 8725959 5070901 4717241
1699 8691126 5117350 4776311
1700 8644742 5058665 4765521
1701 8720926 5178262 4778276
1702 8696679 5256587 4883180
1703 8760609 5218796 4854588
1704 8762912 5317532 4871687
1705 8829414 5252923 4815735
1706 8755390 5305168 4874633
1707 8702086 5170328 4860718
1708 8726142 5287068 4930184
1709 8728208 5342836 4968782
1710 8831227 5409708 4901695
1711 8775866 5460586 5032624
1712 8854980 5480480 4977292
1713 8822733 5520075 5040287
1714 8852628 5510402 4990636
1715 8896659 5583329 5041893
1716 8843376 5573731 5129202
1717 8861527 5583967 5079569
1718 8865435 5640332 5113702
1719 8980884 5668889 5038167
1720 9074857 5778985 5054320
1721 9047248 5702360 5008842
1722 9129862 5770082 4958610
1723 9180313 5726051 4908688
1724 9197669 5710490 4893315
1725 9221204 5795946 4914720
1726 9306372 5836252 4857609
1727 9288003 5914367 4986100
1728 9321200 5944955 5004748
1729 9246327 5973615 5072224
1730 9152363 5852702 5077371
1731 9105393 5839540 5068818
1732 9106296 5893421 5166707
1733 9063518 5875467 5141487
1734 8891693 5818221 5251470
1735 8725129 5552889 5208728
1736 8713033 5695807 5285553
1737 8867759 5776518 5266200
1738 8815941 5768171 5294079
1739 8680062 5633504 5302138
1740 8786426 5709407 5268355
1741 8854047 5841412 5307549
1742 8959643 5883219 5283283
1743 8904015 6029298 5459227
1744 8890847 5949899 5437388
1745 8955859 6037188 5358179
1746 9010210 6030359 5372781
1747 8953334 6016919 5406700
1748 8880884 5878379 5382294
1749 8818281 5735676 5294615
1750 8695642 5684560 5313136
1751 8763969 5663960 5250896
1752 8928048 5856926 5289605
1753 8925194 5777173 5242909
1754 8801492 5649030 5179843
1755 8772662 5601911 5213320
1756 8795221 5578330 5106269
1757 8766906 5638711 5208618
1758 8770564 5555635 5161175
1759 8863646 5665838 5132086
1760 8738177 5539957 5170753
1761 8797407 5628581 5186767
1762 8839238 5650432 5177027
1763 8932260 5695211 5100730
1764 9040462 5743406 5092746
1765 9038047 5691757 4974048
1766 8974708 5612344 4990472
1767 8879924 5376883 4908602
1768 8864146 5415196 4892662
1769 8884528 5445255 4935527
1770 9010040 5584743 4908813
1771 8993651 5515448 4842790
1772 8965251 5303306 4693689
1773 8786390 5222192 4790339
1774 8726339 5055926 4718260
1775 8811638 5231033 4750075
1776 8894203 5300030 4740371
1777 8997190 5398445 4755649
1778 8983627 5416705 4767984
1779 9044674 5343773 4655592
1780 8910351 5394282 4858299
1781 8882027 5413698 4866456
1782 9010206 5555718 4862487
1783 9122831 5465745 4770539
1784 9129906 5534815 4781307
1785 9151924 5600001 4829018
1786 9089713 5521455 4721029
1787 8951159 5281295 4714706
1788 8801249 5036748 4634285
1789 8658964 5005021 4707084
1790 8564901 4857039 4673971
1791 8545446 4880609 4636524
1792 8487338 4780535 4708104
1793 8403777 4706295 4634531
1794 8389262 4734425 4736023
1795 8450326 4732697 4720552
1796 8447906 4887984 4763645
1797 8621524 4957797 4697263
1798 8711418 5097203 4691319
1799 8789048 5126622 4681196
1800 8783387 5122411 4683027
1801 8693703 5065691 4748730
1802 8695995 5053936 4655187
1803 8800306 5169294 4714461
1804 8790584 5081326 4700775
1805 8747307 5133682 4692032
1806 8674196 5006334 4659553
1807 8653519 5059832 4726875
1808 8635428 5035811 4763060
1809 8645291 4998260 4745847
1810 8739338 5173458 4799798
1811 8825670 5149911 4734740
1812 8835331 5230964 4752160
1813 8781040 5072825 4678911
1814 8806203 5174850 4710258
1815 8836105 5190102 4739871
1816 8894469 5221624 4706000
1817 8838310 5250747 4764678
1818 8888315 5189704 4668041
1819 8965266 5317556 4690990
1820 9043526 5283969 4651490
1821 9013066 5347999 4678560
1822 8996022 5217215 4589737
1823 8938143 5161569 4554090
1824 8905917 5050428 4505596
1825 8880813 4978425 4446400
1826 8699553 4988304 4651486
1827 8605630 4851576 4606157
1828 8596114 4902644 4637065
1829 8611495 4833641 4610239
1830 8735298 4879970 4456718
1831 8637486 4762231 4495279
1832 8607940 4732976 4459858
1833 8650809 4814521 4534419
1834 8658907 4740905 4477296
1835 8577791 4788672 4554307
1836 8651600 4788242 4571081
1837 8669065 4986635 4656903
1838 8731242 5078275 4759585
1839 8820742 5240712 4740889
1840 8943956 5428566 4817088
1841 9074482 5583144 4890267
1842 9108712 5699363 4894185
1843 9219181 5709953 4852517
1844 9388681 5971641 4845351
1845 9556223 6204523 4986864
1846 9692621 6435877 5069678
1847 9780533 6658662 5195792
1848 10004700 6985483 5331131
1849 10162508 7395840 5513596
1850 10308846 7584583 5632028
1851 10461826 7908506 5721656
1852 10667130 8205866 5886571
1853 10778512 8427293 5975795
1854 10852430 8470309 5972161
1855 11004800 8447968 5763775
1856 10969763 8323809 5704691
1857 10960235 8063392 5483546
1858 10785276 7865881 5388229
1859 10751513 7614204 5245822
1860 10563909 7385937 5116451
1861 10313961 7022643 5132905
1862 9934557 6636615 5055683
1863 9646166 6370004 5062844
1864 9111884 5678310 4987892
1865 8689888 5354066 5033510
1866 8508675 5119790 5017397
1867 8363817 5114818 5094608
1868 8351659 5061478 5117275
1869 8392467 5105150 5056281
1870 8360611 5093394 5100049
1871 8527478 5088898 4895133
1872 8618193 5145160 4884951
1873 8620857 5063453 4769972
1874 8585939 5096703 4860034
1875 8541897 4998337 4851028
1876 8520789 5056273 4853756
1877 8573304 5102702 4914198
1878 8614338 5085272 4846281
1879 8642143 5172777 4860683
1880 8604160 5006094 4786369
1881 8558174 5052813 4865537
1882 8455256 4997095 4963410
1883 8517717 5089783 4909098
1884 8663132 5097959 4814036
1885 8691317 5111128 4766513
1886 8746665 5184717 4803802
1887 8691916 5064459 4715120
1888 8642910 5077472 4756449
1889 8679783 5001269 4694285
1890 8711712 5098373 4705720
1891 8701048 5021322 4725161
1892 8757126 5121539 4695284
1893 8698715 5137257 4781111
1894 8720897 5077874 4760039
1895 8638381 5228172 4865242
1896 8734406 5196437 4814465
1897 8764615 5291957 4845413
1898 8744026 5197191 4823070
1899 8692578 5241870 4843564
1900 8658474 5170953 4857596
1901 8639894 5073019 4814251
1902 8713596 5157671 4770601
1903 8852839 5170729 4667683
1904 8859128 5255761 4745685
1905 8871494 5222286 4703023
1906 8833009 5194719 4670944
1907 8773418 5099534 4684084
1908 8863782 5148784 4689806
1909 8846138 5245342 4753675
1910 8950921 5199741 4623970
1911 8950258 5308927 4733268
1912 8990853 5293080 4726315
1913 9016834 5468656 4780280
1914 9030787 5507669 4841989
1915 9036571 5531785 4829795
1916 9062261 5549546 4816501
1917 9099187 5447945 4705827
1918 8976356 5422173 4732307
1919 8953393 5382732 4802337
1920 9109493 5643985 4840438
1921 9104373 5595097 4853441
1922 8974120 5452428 4813627
1923 8709543 5256185 4893732
1924 8615089 4991238 4742069
1925 8455427 4917598 4783466
1926 8499722 4897742 4746953
1927 8573554 5065005 4838691
1928 8621273 5125672 4898008
1929 8609317 5135440 4851305
1930 8558282 5051864 4801485
1931 8547586 4991333 4761142
1932 8546864 5053598 4836722
1933 8462566 4914287 4836332
1934 8488969 5156023 4964384
1935 8638268 5211109 4942874
1936 8627890 5271920 4940126
1937 8636479 5200518 4897742
1938 8679478 5188659 4865774
1939 8726951 5297755 4904256
1940 8725212 5232753 4871330
1941 8670219 5347403 4983398
1942 8703540 5324345 4971417
1943 8842775 5457620 4909350
1944 8883536 5399735 4925757
1945 8805230 5383641 4928775
1946 8745917 5423423 4974277
1947 8676056 5302342 4969022
1948 8698797 5285162 4935656
1949 8604506 5071273 4811997
1950 8685219 5251849 4887065
1951 8716812 5273241 4924702
1952 8764283 5349116 4932650
1953 8775811 5373671 4993728
1954 8795992 5410412 4932124
1955 8804745 5521613 5083548
1956 8828587 5442793 4986081
1957 8862558 5654395 5080780
1958 8909574 5632119 5062695
1959 8939743 5702057 5069720
1960 8943252 5714046 5139714
1961 8976879 5788874 5147849
1962 9007107 5817121 5141557
1963 9026545 5666400 5008153
1964 9012799 5749479 5088177
1965 9105325 5774207 5053316
1966 9083106 5860164 5017842
1967 8947098 5704068 5110411
1968 8903879 5617777 5052950
1969 8872572 5625899 5107529
1970 8917335 5609173 5023475
1971 8878900 5633930 5119053
1972 8832321 5580717 5107549
1973 8792789 5594514 5113938
1974 8702550 5468405 5149839
1975 8651176 5440700 5137042
1976 8654076 5427461 5158621
1977 8730064 5458815 5079179
1978 8692331 5578602 5197380
1979 8735345 5555668 5204312
1980 8774769 5722323 5275900
1981 8821848 5705960 5289216
1982 8770648 5730366 5267739
1983 8949078 5832313 5238682
1984 9046193 5865163 5167653
1985 8991325 5888619 5257398
1986 8927285 5800320 5285155
1987 8960794 5965658 5341330
1988 9125211 6058027 5302256
1989 9152387 6108924 5260863
1990 9147366 6147170 5329166
1991 9210461 6222978 5321679
1992 9354905 6311093 5331818
1993 9263620 6124963 5173378
1994 9179879 6135619 5275860
1995 9202312 6082581 5255637
1996 9177416 6129526 5261323
1997 9250473 6149203 5238689
1998 9310970 6209196 5234833
1999 9101279 6084816 5353087
2000 8895951 5874742 5332242
2001 8760716 5866592 5406529
2002 8677937 5681350 5353332
2003 8761099 5818575 5393705
2004 8800315 5810125 5391080
2005 8862719 5891496 5321768
2006 8926275 5926973 5355014
2007 8895529 5852003 5276584
2008 8954363 5992858 5366647
2009 8975847 5948054 5313405
2010 8974620 5994000 5364667
2011 8794356 5751650 5336429
2012 8708870 5744530 5323742
2013 8746451 5766190 5377648
2014 8733006 5744797 5392810
2015 8632288 5749143 5449628
2016 8740921 5756684 5399425
2017 8828642 5877230 5423406
2018 8842720 5879041 5350085
2019 8917404 5984188 5384744
2020 8973337 6020129 5469888
2021 8972058 6108776 5436301
2022 8882666 6067938 5522000
2023 8891953 5976898 5457529
2024 9075973 6103533 5374418
2025 9066924 5973715 5253368
2026 9056028 6086512 5401830
2027 8915160 6031130 5491217
2028 9157643 6082465 5246379
2029 9173342 6083858 5280213
2030 9199604 6044332 5231806
2031 9133284 6051927 5232799
2032 9232312 6018923 5199249
2033 9183690 6097623 5250157
2034 9020087 5957041 5345591
2035 8934155 5954599 5345934
2036 8813336 5733180 5314892
2037 8744012 5684320 5268537
2038 8750739 5790875 5366307
2039 8725728 5658835 5311463
2040 8734114 5766047 5399433
2041 8792900 5781855 5361720
2042 8897679 5879928 5320762
2043 8851567 5807889 5361282
2044 8852138 5869929 5346680
2045 8895488 5780541 5238092
2046 8998685 5811366 5112693
2047 8988638 5776803 5132318
2048 8950228 5600793 5009901
2049 8939071 5677138 5037369
2050 8946617 5661877 5101156
2051 8993217 5736322 5107499
2052 8963311 5754463 5128051
2053 9067330 5761330 5065066
2054 9030043 5798544 5096638
2055 8992699 5773227 5095735
2056 9065141 5921771 5205606
2057 9086904 5815023 5092129
2058 9102641 5896636 5118551
2059 9078885 5844347 5180722
2060 9020430 5843291 5132405
2061 8974350 5777418 5185227
2062 8962229 5745486 5134614
2063 8906371 5810354 5225240
2064 8936775 5694642 5119520
2065 8983785 5711246 5052310
2066 9131502 5778436 5034967
2067 9150651 5829978 5007906
2068 9007503 5718421 5060483
2069 9026628 5640662 4954846
2070 9014335 5692897 4963704
2071 9025983 5686315 4998426
2072 9071382 5839805 5035459
2073 9076017 5791518 5068596
2074 8998395 5779280 5095462
2075 8768967 5553601 5181530
2076 8573426 5402624 5153358
2077 8570763 5446444 5188516
2078 8663985 5432581 5111091
2079 8680914 5602053 5236293
2080 8832138 5598041 5153479
2081 8891485 5657024 5096616
2082 8873573 5616942 5137069
2083 8845080 5673354 5154845
2084 8890826 5724923 5197930
2085 8915255 5748084 5139301
2086 8975542 5821392 5199888
2087 9065430 5765059 5070428
2088 8937453 5738149 5133478
2089 8916927 5720511 5125928
2090 9022141 5754266 5084111
2091 9027277 5791067 5144893
2092 8933092 5702870 5107149
2093 8835098 5688230 5199262
2094 8869923 5644789 5107471
2095 8976068 5792699 5153542
2096 8989301 5764492 5125084
2097 9099071 5877416 5123780
2098 9148375 5937712 5150821
2099 9159735 5950463 5105808
2100 9119554 5981740 5167098
2101 9139521 5929823 5127375
2102 9103220 5957395 5192466
2103 9043898 5830700 5130847
2104 8947402 5853975 5214692
2105 9018801 5831927 5208500
2106 9087895 5905271 5188881
2107 9094792 6026538 5303136
2108 9151914 6014149 5198733
2109 9218488 6092742 5183319
2110 9132698 5880071 5071380
2111 8879319 5647127 5101542
2112 8627106 5330962 5152022
2113 8310717 5183129 5214230
2114 8076152 5005716 5265327
2115 8115303 5036969 5256477
2116 8241147 5245745 5323894
2117 8517758 5360487 5241799
2118 8550372 5525192 5301110
2119 8556969 5534061 5370092
2120 8483060 5638712 5472786
2121 8428811 5567396 5513615
2122 8578047 5641498 5424365
2123 8671615 5797095 5470951
2124 8662202 5691183 5322924
2125 8690566 5761345 5374099
2126 8780125 5729678 5315243
2127 8803930 5768546 5298141
2128 8744794 5675962 5279977
2129 8740532 5758873 5354073
2130 8789390 5836979 5402747
2131 8768695 5751333 5307979
2132 8746146 5815354 5385466
2133 8792368 5782743 5370974
2134 8792693 5935995 5396529
2135 8767086 5907536 5529576
2136 8832381 6006307 5498050
2137 8883693 6095067 5537200
2138 8847414 6114623 5617655
2139 8870385 6198780 5680476
2140 8878106 6072622 5573225
2141 8963982 6186468 5548345
2142 9097410 6311117 5577005
2143 9089405 6380189 5620129
2144 9054490 6382716 5697885
2145 9131534 6373851 5592061
2146 9168226 6462348 5611673
2147 9078930 6269228 5547911
2148 9025160 6348711 5656345
2149 8964714 6247315 5674462
2150 8845743 6204441 5624313
2151 8854180 6040490 5545730
2152 8825048 6075460 5583224
2153 8764885 6127266 5732889
2154 8800784 6050726 5596260
2155 8940177 6226604 5640506
2156 8837465 6032807 5550367
2157 8746995 6048783 5580641
2158 8746950 5922530 5492706
2159 8805954 5982979 5471916
2160 8766953 5934144 5524339
2161 8815518 5939551 5533840
2162 8851703 6092348 5528088
2163 8946474 6052872 5450870
2164 9044921 6176400 5464453
2165 9077802 6062666 5382755
2166 9096989 6104249 5335771
2167 9030401 6009682 5324207
2168 8876818 5894936 5295614
2169 8842648 5812762 5286084
2170 8850534 5702612 5174862
2171 8848488 5697710 5199097
2172 8950436 5712748 5157745
2173 8957264 5798900 5123509
2174 8879037 5629600 5165050
2175 8789420 5659038 5168567
2176 8887230 5694117 5155923
2177 9019117 5808416 5148275
2178 8982597 5835810 5166253
2179 9105871 5725055 4993885
2180 8974143 5769999 5130526
2181 8923737 5664398 5106529
2182 9030610 5761447 5039765
2183 8992758 5720772 5105580
2184 8985771 5724057 5080686
2185 8943388 5783781 5154315
2186 8974654 5764327 5175130
2187 8985352 5921991 5253197
2188 9166878 5880895 5093555
2189 9011010 5735277 5046103
2190 8669728 5298488 5005931
2191 8441217 5101680 4968155
2192 8470866 5091952 4997479
2193 8622339 5177562 4878029
2194 8601598 5343952 5058217
2195 8588632 5325796 5059619
2196 8616864 5349130 5100466
2197 8661199 5385280 5047194
2198 8674465 5345273 4959538
2199 8772803 5458888 5008021
2200 8758514 5475451 5057293
2201 8683412 5533252 5158279
2202 8660598 5426860 5086327
2203 8722849 5482180 5124240
2204 8680582 5313550 5023376
2205 8576472 5251503 4974698
2206 8597091 5276559 5024129
2207 8601753 5265388 4986441
2208 8683693 5336472 4985098
2209 8759418 5214172 4855258
2210 8692953 5326401 4971696
2211 8654850 5299085 5017076
2212 8673740 5303487 4996999
2213 8640906 5188104 4905943
2214 8639057 5232914 4932601
2215 8668105 5364928 5058893
2216 8645403 5341134 5017202
2217 8653133 5425359 5124183
2218 8681288 5404561 5045849
2219 8761483 5496247 5075780
2220 8795631 5474611 5053957
2221 8800589 5413698 4952958
2222 8702712 5302213 4954938
2223 8672990 5250368 4902732
2224 8742800 5317059 4907356
2225 8730565 5301556 4912758
2226 8778939 5347848 4900869
2227 8721279 5235612 4860520
2228 8811091 5289010 4822982
2229 8813479 5347937 4898918
2230 8912367 5391246 4872599
2231 8911371 5499932 4940898
2232 8857380 5392287 4864252
2233 8979245 5499813 4859841
2234 8986593 5450812 4866838
2235 8895088 5338901 4789711
2236 8879561 5279805 4780786
2237 8985836 5357222 4713295
2238 8972809 5507787 4909329
2239 9023715 5497026 4854952
2240 9018473 5636512 4918558
2241 9187007 5641535 4808393
2242 9308132 5871592 4870918
2243 9234088 5844140 4979905
2244 9084182 5697657 4972742
2245 8955888 5664630 5097226
2246 8884796 5602720 5033631
2247 8951766 5801060 5195573
2248 9040935 5872651 5220644
2249 9180441 6065638 5236853
2250 9403572 6347583 5300158
2251 9593259 6661098 5381194
2252 9803929 6966065 5475783
2253 10045977 7246771 5531294
2254 10202815 7567563 5703936
2255 10335813 7836712 5832289
2256 10497665 8194458 5997806
2257 10714611 8468567 6036815
2258 10925111 8809904 6138966
2259 11000827 8729955 6049112
2260 10964052 8550738 5913890
2261 10963876 8327534 5688653
2262 11054433 7991624 5273345
2263 10894602 7819295 5279419
2264 10657341 7446094 5131005
2265 10458421 7167691 5059811
2266 10183403 6957645 5122572
2267 10001661 6791644 5109288
2268 9755636 6623678 5231574
2269 9466856 6411901 5264261
2270 9346162 6402212 5348999
2271 9296562 6175040 5262422
2272 9083243 6224294 5432091
2273 8922751 6018396 5435829
2274 8831349 5894447 5370098
2275 8710106 5720190 5389947
2276 8646455 5616396 5305633
2277 8700330 5616936 5218239
2278 8754611 5564869 5161597
2279 8743319 5664137 5260628
2280 8786129 5588281 5126718
2281 8751413 5585142 5092708
2282 8681033 5541059 5193634
2283 8613372 5515115 5207457
2284 8661635 5521354 5173426
2285 8795152 5483531 5085816
2286 8734573 5570037 5137446
2287 8692756 5397925 5068996
2288 8679238 5474183 5113814
2289 8612051 5342434 5087415
2290 8716064 5476347 5089308
2291 8795641 5551193 5107516
2292 8786987 5463277 5010961
2293 8756214 5572863 5110351
2294 8802341 5492472 5029871
2295 8834048 5482733 4990203
2296 8777387 5417569 4995979
2297 8889370 5535023 4995427
2298 8914123 5576475 4991980
2299 8962298 5591907 4944848
2300 8933776 5610397 4994105
2301 8996444 5624506 4982376
2302 8975460 5664428 5010113
2303 8981087 5644851 5003033
2304 8976551 5675805 5045171
2305 8948499 5579952 5012257
2306 8823196 5460047 4942173
2307 8600578 5324086 5078825
2308 8621781 5258317 4949062
2309 8643295 5309956 5000040
2310 8556117 5126082 4942126
2311 8586514 5287483 5040056
2312 8575965 5236403 4937503
2313 8557947 5162139 4950422
2314 8690772 5354212 5011864
2315 8846437 5488740 4974791
2316 8860114 5560479 5047751
2317 8815468 5441543 5011699
2318 8853514 5593522 5013732
2319 8874585 5504860 4965073
2320 8844418 5567712 5023385
2321 8794862 5539420 5107331
2322 8830633 5534667 5004526
2323 8770682 5514845 5087229
2324 8714830 5356745 4975930
2325 8555631 5316439 5109897
2326 8613463 5353800 5105134
2327 8586912 5363028 5114498
2328 8550790 5215379 5076749
2329 8562343 5303079 5061297
2330 8531929 5391612 5184835
2331 8773230 5509664 5059798
2332 8838252 5613996 5089025
2333 8846850 5620872 5112505
2334 8823928 5732124 5233078
2335 8795433 5607351 5200146
2336 8792011 5552023 5098547
2337 8857599 5623622 5109860
2338 8928912 5681095 5091278
2339 8942978 5783327 5171807
2340 8988128 5712287 5084542
2341 8948483 5838697 5207161
2342 8995286 5822873 5148666
2343 9037823 5892667 5176941
2344 9068505 5932093 5205777
2345 9142750 5933848 5111158
2346 9176455 5999037 5169220
2347 9140971 5951216 5182341
2348 9063690 5947286 5239162
2349 8837845 5590425 5134621
2350 8498078 5303432 5147938
2351 8194590 4961273 5145716
2352 8238400 5031681 5123141
2353 8226705 5063279 5204064
2354 8270628 5153066 5180484
2355 8396509 5363355 5286563
2356 8422785 5346434 5239273
2357 8531954 5510056 5265693
2358 8576377 5429032 5255576
2359 8630627 5577286 5300329
2360 8627275 5584161 5308704
2361 8691073 5603184 5231302
2362 8630758 5658493 5310006
2363 8653992 5576422 5292632
2364 8680763 5740875 5335326
2365 8751922 5675872 5286574
2366 8794715 5747195 5266305
2367 8744711 5690476 5299438
2368 8801084 5658939 5218829
2369 8787803 5727452 5262658
2370 8808547 5664503 5182136
2371 8814581 5748583 5274055
2372 8846927 5757711 5290289
2373 8839209 5866065 5323793
2374 8869873 5823226 5304338
2375 8891671 5865009 5283968
2376 8840088 5818138 5273133
2377 8934676 5869066 5286619
2378 8924543 6006857 5397368
2379 8941788 5957848 5382294
2380 8832455 6066840 5504626
2381 8902170 5946400 5375900
2382 9070908 6106950 5375067
2383 9014528 6067511 5449461
2384 9046374 6035516 5338573
2385 9035179 6067308 5397110
2386 8991940 5990380 5343724
2387 8970292 6053805 5432349
2388 8983151 5999534 5375309
2389 9052580 6077868 5411271
2390 8993236 6098940 5460829
2391 8952387 6169576 5483953
2392 8940535 6142198 5571667
2393 9019685 6185605 5512868
2394 8904825 6204754 5587180
2395 8917725 6136653 5501794
2396 8946348 6113059 5476872
2397 8965746 6056975 5455706
2398 8969786 6126048 5437905
2399 9020775 6144225 5492496
2400 9008928 6166959 5517832
2401 8933025 6239851 5650829
2402 8918414 6113226 5533687
2403 8911919 6133704 5528077
2404 8881337 6036567 5492669
2405 8931123 6170532 5577465
2406 8956802 6179805 5568051
2407 8992435 6184488 5495236
2408 8971711 6220197 5584671
2409 8988034 6201875 5550605
2410 8972659 6212152 5531339
2411 9002092 6147160 5484076
2412 9045126 6306830 5586687
2413 9049108 6292114 5564102
2414 9255451 6430696 5543340
2415 9239003 6437750 5528583
2416 9279658 6437994 5488778
2417 9269166 6526484 5557968
2418 9277220 6407738 5472495
2419 9144145 6415624 5559451
2420 9110476 6316259 5545014
2421 8980285 6288469 5628389
2422 8977404 6315372 5666449
2423 9044851 6378127 5618453
2424 9013381 6382597 5701429
2425 9013080 6322862 5596529
2426 9057354 6371082 5626015
2427 9039500 6256780 5568023
2428 8982338 6317133 5630801
2429 8978986 6188670 5546245
2430 9094372 6333052 5545266
2431 9094395 6398183 5582865
2432 9169905 6396511 5581447
2433 9086345 6413262 5669973
2434 9105744 6300317 5553650
2435 9179010 6358457 5486579
2436 8934205 6083967 5533749
2437 8753060 6081284 5620285
2438 8771816 6033868 5605507
2439 8808780 6008726 5529996
2440 8899270 6181049 5603973
2441 8981809 6221631 5530032
2442 8957227 6285214 5633447
2443 8980589 6246350 5590006
2444 9077345 6352495 5569603
2445 9132939 6272714 5499383
2446 9122825 6302971 5478662
2447 9043235 6233244 5483311
2448 9055142 6183355 5433549
2449 8986808 6198397 5528033
2450 9012378 6148188 5482408
2451 9088294 6232388 5473808
2452 9118792 6136176 5379758
2453 9042216 6129065 5407387
2454 8984807 6035325 5399145
2455 8866498 5994708 5408858
2456 8784496 5919374 5487962
2457 8800920 5885277 5404192
2458 8790082 5973788 5500624
2459 8851665 5929365 5415482
2460 8867899 5997601 5424164
2461 8823571 5955786 5507447
2462 8829631 5978395 5437067
2463 8849344 5997382 5481044
2464 8984105 6043226 5402915
2465 9023359 6128436 5429139
2466 9064095 6136680 5390339
2467 9078817 6233387 5439994
2468 9083587 6138200 5399380
2469 9110505 6123740 5288724
2470 9141473 6104203 5297902
2471 9108852 6057001 5265100
2472 9016794 6101863 5384735
2473 9080509 6003595 5257892
2474 8908680 5988721 5340958
2475 8831097 5837278 5314602
2476 8714148 5804053 5401461
2477 8637806 5651851 5394041
2478 8678275 5682486 5335431
2479 8709037 5793454 5418475
2480 8779395 5793030 5370527
2481 8774287 5891129 5439586
2482 8812853 5839995 5380372
2483 8816285 5927584 5439828
2484 8799440 5884083 5463358
2485 8793564 5949777 5471613
2486 8906130 5969570 5395310
2487 8928761 5903194 5298416
2488 8899854 5953067 5404761
2489 8822918 5789339 5326433
2490 8776485 5883569 5381924
2491 8817188 5784092 5305173
2492 8826130 5882050 5330975
2493 8889599 5860903 5329841
2494 8933794 5905285 5342705
2495 8947202 6067428 5432635
2496 8909641 5999995 5383424
2497 8930734 6037554 5441020
2498 8911279 5992781 5438029
2499 9029656 6183518 5481907
2500 9009389 6135098 5539058
2501 9016446 6209625 5476465
2502 9022412 6231234 5556457
2503 9090083 6178546 5423669
2504 9070495 6156345 5412759
2505 9074136 6134571 5382945
2506 9139267 6322497 5446284
2507 9110969 6253476 5485497
2508 9062521 6262875 5458127
2509 9116144 6255762 5469199
2510 9220721 6284269 5372581
2511 9163199 6363790 5525893
2512 9070788 6228604 5459882
2513 8808141 6022573 5538007
2514 8611814 5751027 5482751
2515 8551803 5755410 5538022
2516 8471038 5688905 5560027
2517 8499869 5696644 5525613
2518 8487255 5809313 5626616
2519 8654627 5807443 5530621
2520 8666536 5983099 5573221
2521 8781757 5976120 5562931
2522 8873835 6159348 5615915
2523 8794049 6054860 5604294
2524 8689397 5948094 5528670
2525 8764159 6025176 5590296
2526 8901669 6103384 5529977
2527 8865273 6191602 5638115
2528 8810116 6094609 5645046
2529 8885237 6252858 5648244
2530 9011849 6233258 5625215
2531 8931699 6232302 5612471
2532 9034892 6239286 5590533
2533 9066986 6224744 5495222
2534 8894544 6193549 5657714
2535 8943387 6208198 5611157
2536 8943666 6251798 5643571
2537 8965139 6190311 5547246
2538 8929410 6220044 5609239
2539 9007417 6224346 5616672
2540 9000412 6309079 5598423
2541 8952197 6360382 5749795
2542 9005697 6418783 5697868
2543 8964831 6465240 5833109
2544 8729849 6218899 5807152
2545 8529910 6169688 5931638
2546 8612780 6164001 5911635
2547 8688399 6266691 5921999
2548 8758524 6308194 5885121
2549 8877192 6373456 5809313
2550 8917684 6411008 5817367
2551 9053860 6467290 5740645
2552 9047225 6534660 5767232
2553 9057354 6454912 5759757
2554 8909386 6448305 5828670
2555 8986848 6447344 5822609
2556 9028115 6523659 5786902
2557 9047602 6508363 5800398
2558 9042307 6486232 5778573
2559 9067014 6673813 5903998
2560 9059922 6656788 5869295
2561 9008121 6647727 5938580
2562 9081250 6613299 5853388
2563 9091671 6625158 5829053
2564 9179174 6662015 5842288
2565 9132903 6543666 5723253
2566 8929392 6447949 5808960
2567 8823040 6259080 5720327
2568 8704293 6182131 5774762
2569 8675423 5984095 5668786
2570 8663398 6031629 5635922
2571 8783783 6095577 5638048
2572 8767994 6128230 5634078
2573 8695768 6050315 5619785
2574 8725062 5974260 5555295
2575 8755361 5998122 5592959
2576 8698304 5885212 5565595
2577 8738823 5989342 5503715
2578 8819627 5868896 5466201
2579 8770080 5958785 5480291
2580 8777012 6022301 5517359
2581 8802951 5939176 5449376
2582 8787527 6054306 5520406
2583 8830743 5994837 5501571
2584 8826870 6036457 5521083
2585 8802495 5829131 5355423
2586 8883793 5840047 5263927
2587 8775035 5779200 5330713
2588 8798414 5672379 5257505
2589 8759068 5732936 5322708
2590 8712232 5668962 5291088
2591 8682871 5723332 5316515
2592 8779038 5678963 5267982
2593 8791617 5784569 5230502
2594 8969296 5784372 5183946
2595 9078690 5922253 5162487
2596 9013128 5950859 5252780
2597 9073159 5985889 5205696
2598 9117386 6123609 5309592
2599 9097661 6028203 5301521
2600 9052657 6097065 5314436
2601 9136251 6021008 5282267
2602 9177325 6150252 5271368
2603 9200243 6153755 5300386
2604 9153984 6085954 5264568
2605 9105374 6144231 5323129
2606 9150588 6089851 5258650
2607 9111222 6123630 5312786
2608 9108264 6008502 5281623
2609 9090274 6007595 5222964
2610 8965726 5814474 5259459
2611 8676039 5594369 5201492
2612 8521718 5458727 5259204
2613 8415674 5292094 5185614
2614 8309336 5328196 5256700
2615 8309997 5195625 5260776
2616 8271922 5287830 5331794
2617 8310956 5304243 5299868
2618 8324286 5356835 5348017
2619 8455885 5547497 5387673
2620 8577890 5555583 5279206
2621 8595713 5632415 5360349
2622 8625259 5548009 5295337
2623 8600740 5624237 5299165
2624 8668243 5510774 5227527
2625 8686195 5585509 5228517
2626 8726911 5631770 5221043
2627 8757129 5573569 5145398
2628 8727598 5609234 5171900
2629 8782583 5511604 5116739
2630 8821295 5670080 5170901
2631 8750916 5570952 5181044
2632 8687936 5622592 5256050
2633 8711396 5574971 5194986
2634 8768847 5617014 5169964
2635 8826023 5714673 5260767
2636 8853671 5637569 5149882
2637 8851668 5791726 5221018
2638 8875416 5690215 5133408
2639 8989442 5790297 5072181
2640 8995093 5652725 5008710
2641 8863044 5645095 5072656
2642 8858278 5645802 5116066
2643 8867135 5562071 5001975
2644 8915078 5612037 5065056
2645 8873209 5532746 5054018
2646 8730011 5499779 5046485
2647 8676751 5366574 5005733
2648 8779762 5533981 5078984
2649 8765196 5539273 5149122
2650 8673576 5544321 5193451
2651 8776665 5724779 5266185
2652 9016728 5920404 5250181
2653 9166141 6183858 5291411
2654 9311292 6298939 5391584
2655 9523517 6540862 5296006
2656 9629336 6670375 5409704
2657 9768220 6898770 5405924
2658 9857729 7199555 5649970
2659 10006925 7402674 5726710
2660 10128810 7724786 5900789
2661 10203026 7810802 5959824
2662 10393588 8212737 6094719
2663 10507693 8416871 6276753
2664 10649027 8628209 6262832
2665 10712903 8839194 6442046
2666 10834743 8780639 6233349
2667 10925364 8590843 5950099
2668 10881854 8180174 5578009
2669 10721552 7950483 5519723
2670 10502299 7556961 5404925
2671 10291231 7243172 5253192
2672 10098102 7053960 5245413
2673 10011649 7008538 5319713
2674 9845875 7010841 5480472
2675 9788894 6997932 5522695
2676 9644188 6932616 5595393
2677 9581387 6820993 5603962
2678 9378193 6858254 5754637
2679 9177459 6688141 5879552
2680 9029557 6685857 5901400
2681 8958680 6467606 5841982
2682 8866489 6302234 5798413
2683 8751864 6232362 5730373
2684 8746842 5953342 5512644
2685 8558897 5738355 5499851
2686 8353829 5481247 5474352
2687 8434358 5505394 5363993
2688 8447255 5552955 5442642
2689 8435276 5485155 5363298
2690 8478571 5514953 5360452
2691 8593879 5474024 5233101
2692 8567155 5597334 5298571
2693 8560877 5488987 5292491
2694 8547853 5600078 5333220
2695 8520376 5568970 5412311
2696 8607381 5652817 5369963
2697 8633583 5686238 5388045
2698 8706811 5712702 5329511
2699 8730054 5772179 5356557
2700 8681063 5651878 5267172
2701 8808625 5785150 5267143
2702 8890303 5779817 5210246
2703 8830092 5754020 5216251
2704 8768688 5723753 5298255
2705 8718474 5625393 5253624
2706 8698119 5750024 5368526
2707 8775987 5723525 5257214
2708 8851470 5796984 5229302
2709 8878225 5692834 5161471
2710 8894764 5803592 5182301
2711 8996943 5828818 5173254
2712 9008382 5797329 5132757
2713 8911388 5803517 5197393
2714 8683042 5515328 5202222
2715 8389510 5387696 5299210
2716 8337557 5289966 5309723
2717 8567807 5454637 5145925
2718 8611046 5449634 5155848
2719 8615526 5531894 5223179
2720 8633237 5600064 5287816
2721 8610245 5546220 5247941
2722 8707752 5641835 5289856
2723 8605849 5549245 5262472
2724 8645438 5669247 5326992
2725 8637584 5585435 5318043
2726 8720224 5702633 5219989
2727 8710315 5655816 5248094
2728 8831221 5676278 5165233
2729 8808614 5738800 5240969
2730 8888083 5727874 5172461
2731 8872073 5776232 5201917
2732 8858021 5723131 5204531
2733 8917278 5877926 5228606
2734 8986808 5891766 5211102
2735 9067070 5939698 5234618
2736 8955802 6029901 5379695
2737 9006263 5950062 5279899
2738 9009025 6028713 5283582
2739 8938402 5856214 5280139
2740 8913072 5933926 5286814
2741 8933960 5933940 5315459
2742 8877112 5870681 5314256
2743 8644729 5710116 5417747
2744 8486788 5522454 5379312
2745 8356291 5473419 5423989
2746 8518560 5512772 5353328
2747 8639988 5678045 5397903
2748 8606496 5616854 5338506
2749 8624124 5647924 5309028
2750 8709452 5720845 5349279
2751 8742087 5731033 5343449
2752 8591270 5720983 5469073
2753 8494265 5517781 5333515
2754 8608010 5643327 5320204
2755 8644340 5659505 5331509
2756 8768933 5778954 5361653
2757 8764835 5856356 5406009
2758 8818691 5904160 5408981
2759 8823252 5944291 5407787
2760 8847477 5874570 5409598
2761 8905228 5950923 5378918
2762 8851759 5825460 5318842
2763 8758603 5908681 5419086
2764 8924444 6064390 5413953
2765 8980086 6120822 5416610
2766 9016202 6077028 5419094
2767 8981640 5961181 5293752
2768 8950052 6029347 5384666
2769 8956078 5996933 5376863
2770 8975472 6115786 5439293
2771 8949131 6088910 5483925
2772 8945948 6173445 5503937
2773 9061642 6192983 5396594
2774 9095126 6123176 5322461
2775 8945649 6131362 5470424
2776 8863823 5916456 5404453
2777 8830102 5985908 5449755
2778 8849976 5996193 5452299
2779 8896828 6103904 5533263
2780 8914976 6135368 5595703
2781 8858518 6100827 5546711
2782 8877233 6153413 5635291
2783 8921923 6155119 5524486
2784 8946211 6281715 5596722
2785 8989423 6204197 5542985
2786 9037568 6277505 5544316
2787 9024444 6208321 5547002
2788 9054382 6235083 5502501
2789 8944917 6227114 5572057
2790 8970038 6171641 5492544
2791 9077089 6352482 5619266
2792 9002342 6204212 5524135
2793 8952049 6233270 5587589
2794 8913554 6150816 5588246
2795 8975079 6198844 5548481
2796 8997820 6204153 5547689
2797 8999650 6238728 5565684
2798 8994896 6319433 5629402
2799 9019821 6283035 5620407
2800 8989815 6416615 5704382
2801 8998969 6321293 5682638
2802 9065305 6488009 5699248
2803 9118740 6446417 5701285
2804 9152318 6552522 5673955
2805 9198681 6520402 5637224
2806 9193635 6506770 5630246
2807 9072877 6507228 5688137
2808 9010961 6324046 5660050
2809 8912104 6324082 5681732
2810 8903581 6292450 5712548
2811 8877881 6357582 5802573
2812 9004706 6397978 5708218
2813 9119976 6468512 5630437
2814 9053491 6524168 5784828
2815 9000363 6417437 5700930
2816 9072851 6557184 5760340
2817 9057078 6495641 5763048
2818 9040915 6557024 5771095
2819 9023493 6430051 5731569
2820 8971406 6467921 5757805
2821 8973428 6529476 5873908
2822 9140848 6572004 5745146
2823 9137450 6672538 5857138
2824 9116262 6581491 5794850
2825 9051182 6534800 5758697
2826 9053307 6462201 5718846
2827 9070866 6524089 5768186
2828 9049448 6537461 5770866
2829 9055212 6482525 5748620
2830 9049376 6542917 5780480
2831 9092749 6507141 5743191
2832 9126188 6679350 5888717
2833 9175667 6631271 5802057
2834 9178686 6669758 5742218
2835 9192743 6674898 5801662
2836 9075930 6577833 5744475
2837 8997473 6544621 5840588
2838 9082738 6512506 5742753
2839 9143400 6605775 5748472
2840 9194518 6560975 5700637
2841 9185018 6621716 5740120
2842 9086860 6549897 5776284
2843 9062046 6581815 5822948
2844 9085247 6651162 5889012
2845 9105403 6595080 5808672
2846 9005053 6611791 5904764
2847 9019431 6499833 5752355
2848 8995637 6567871 5827323
2849 9049289 6451595 5749931
2850 9045110 6475399 5748300
2851 9045575 6445063 5737831
2852 9025687 6426340 5723608
2853 9030159 6484803 5755521
2854 9013360 6449365 5725710
2855 9124322 6593455 5763830
2856 9042204 6464286 5755267
2857 8975342 6522166 5839638
2858 9055793 6441757 5672093
2859 9115821 6379999 5545069
2860 9146560 6376540 5565940
2861 9116819 6346696 5530836
2862 9131926 6444407 5627063
2863 9110929 6299822 5560137
2864 9078413 6414488 5592368
2865 9086590 6345505 5605293
2866 9070536 6383099 5630156
2867 9026828 6378739 5659306
2868 9093206 6348529 5526248
2869 9040198 6289628 5576922
2870 9101162 6326451 5550596
2871 9122458 6430800 5597167
2872 9123652 6316081 5529337
2873 9164747 6367161 5523025
2874 9024126 6330969 5643025
2875 9185292 6469609 5587911
2876 9120643 6401850 5613822
2877 9212504 6458185 5540577
2878 9150365 6552314 5671144
2879 9119543 6420675 5633468
2880 9021459 6393274 5658441
2881 9061764 6347051 5565584
2882 9037241 6300005 5546794
2883 8997088 6303727 5631045
2884 8967019 6310012 5629967
2885 9042700 6442882 5703674
2886 8950768 6280776 5674326
2887 8758219 6186163 5747571
2888 8771428 6041607 5598204
2889 8843892 6117614 5553000
2890 8992204 6165264 5490223
2891 9029068 6189605 5440353
2892 9066895 6240195 5516572
2893 9070135 6282635 5480111
2894 9068187 6354873 5594558
2895 9167639 6452068 5551493
2896 9202756 6497380 5564470
2897 9199127 6491549 5608265
2898 9227021 6584044 5670100
2899 9307782 6571458 5582654
2900 9328622 6519368 5489648
2901 9304178 6590688 5571640
2902 9317933 6528199 5562538
2903 9313035 6581690 5541412
2904 9252578 6502932 5626192
2905 9144897 6422991 5584778
2906 8907467 6190350 5658102
2907 8524097 5857487 5660883
2908 8472802 5843503 5653463
2909 8617673 5848282 5546439
2910 8670428 5954337 5608239
2911 8812532 6002800 5500618
2912 8812105 6091680 5573928
2913 8968423 6221084 5588542
2914 8966730 6208333 5522400
2915 8954021 6261698 5613571
2916 9085014 6267001 5468178
2917 9077685 6279002 5514676
2918 8834961 6053392 5586959
2919 8628153 6046920 5694940
2920 8615216 5970846 5692629
2921 8626319 6032894 5693868
2922 8653611 6081603 5756447
2923 8683978 6120085 5769393
2924 8686484 6222443 5821913
2925 8739038 6080646 5663899
2926 8828999 6275985 5682299
2927 8923355 6330867 5751682
2928 8939802 6454773 5774684
2929 9075217 6531565 5758086
2930 9100733 6513207 5738167
2931 9150830 6728260 5876786
2932 9181102 6668774 5764276
2933 9126213 6741952 5886147
2934 9240093 6724933 5828091
2935 9331697 6806615 5762828
2936 9360265 6752250 5745337
2937 9478505 6927406 5728514
2938 9456795 6955660 5854776
2939 9559940 7024626 5784945
2940 9636697 7203845 5854581
2941 9451427 6976511 5838218
2942 9095539 6625623 5859999
2943 8901895 6385240 5834979
2944 8675240 6244624 5818041
2945 8453627 5972771 5814699
2946 8376472 5787336 5783088
2947 8478948 5881940 5771206
2948 8471407 5895699 5778296
2949 8526681 6008397 5798379
2950 8585982 6051015 5763660
2951 8672913 6227843 5864361
2952 8664666 6225660 5883481
2953 8862800 6379457 5880585
2954 8787677 6489842 6005403
2955 8742745 6449157 6000227
2956 8786594 6557266 6078934
2957 8861928 6555168 6062424
2958 8844169 6590044 6015179
2959 8844895 6567968 6048178
2960 8940859 6667232 6022234
2961 9021851 6747631 6064951
2962 9001367 6709500 6074551
2963 8964713 6798005 6119448
2964 9022051 6742475 6088952
2965 8934919 6739860 6097584
2966 8890246 6676086 6096166
2967 8873208 6646125 6099644
2968 8895429 6717045 6149898
2969 8974297 6697463 6024111
2970 9027201 6796408 6097971
2971 9051994 6801001 6050309
2972 9074688 6831739 6040275
2973 9035212 6671640 5982113
2974 9053707 6663655 5873454
2975 9256264 6714947 5830422
2976 9316089 6878136 5836575
2977 9291455 6838535 5865824
2978 9238726 6774360 5815471
2979 9260367 6856911 5902797
2980 9245030 6809655 5918543
2981 9250128 6919716 5922090
2982 9110843 6712656 5926921
2983 9174311 6725551 5815846
2984 9000158 6515147 5824337
2985 8771175 6190235 5711414
2986 8741707 6148684 5721310
2987 8817364 6104503 5651562
2988 8766597 6226388 5719640
2989 8741803 6072595 5724743
2990 8693967 6108421 5742186
2991 8788926 6126591 5685938
2992 8866392 6052468 5550187
2993 8864281 6169465 5615676
2994 8821484 6065911 5551346
2995 8876369 6186211 5599546
2996 8998033 6154855 5474907
2997 9124317 6243951 5419148
2998 9046789 6136431 5464618
2999 8982644 6221946 5529344
3000 9000461 6216262 5554874
3001 8969518 6214391 5556785
3002 8985356 6311662 5583682
3003 9084682 6242804 5479762
3004 9021199 6240251 5535013
3005 8999997 6082287 5474204
3006 9043335 6212900 5420994
3007 9113340 6231342 5443137
3008 9037370 6130269 5374657
3009 8860438 5968437 5454281
3010 8683725 5785452 5416217
3011 8604521 5766826 5463590
3012 8635358 5747897 5430698
3013 8758343 5970897 5514547
3014 8934990 6043723 5474033
3015 9055598 6142238 5356621
3016 9116906 6212672 5405746
3017 9184026 6242652 5378746
3018 9221374 6456643 5479631
3019 9287652 6440577 5462167
3020 9360948 6562643 5442638
3021 9411451 6553933 5473211
3022 9410149 6538057 5404594
3023 9507068 6630785 5434055
3024 9460578 6637495 5466694
3025 9552660 6793536 5539658
3026 9654607 6757614 5411396
3027 9461744 6631343 5450688
3028 9092359 6148537 5390336
3029 8610149 5611132 5329505
3030 8278632 5306176 5360752
3031 8222929 5262306 5326551
3032 8041339 5191321 5450858
3033 8028236 5150059 5466346
3034 8125848 5430925 5553933
3035 8341995 5466921 5466801
3036 8404848 5540627 5460132
3037 8572582 5579087 5347334
3038 8703996 5609700 5229547
3039 8643009 5664840 5331394
3040 8667868 5715608 5356227
3041 8565715 5763121 5482765
3042 8652588 5726672 5373901
3043 8718134 5740866 5299060
3044 8722875 5673580 5271084
3045 8755840 5707676 5226018
3046 8690993 5724943 5353987
3047 8735499 5727307 5323874
3048 8698397 5752075 5362319
3049 8709108 5608352 5236749
3050 8775167 5678075 5244917
3051 8746947 5632875 5213259
3052 8776338 5724587 5231722
3053 8822814 5824598 5261508
3054 8853559 5759060 5214683
3055 8923354 5846306 5224176
3056 8952294 5830865 5197625
3057 9037346 6026859 5225590
3058 9206691 6112078 5215757
3059 9174962 6278054 5410653
3060 9091507 6231723 5487192
3061 9226460 6391305 5459651
3062 9285066 6546153 5584342
3063 9298943 6545859 5523105
3064 9448642 6810943 5651986
3065 9553693 6880345 5681413
3066 9741653 7233339 5764878
3067 9879725 7382208 5796696
3068 9848856 7466848 5891335
3069 9893843 7681973 6062554
3070 10097951 7915010 6113608
3071 10244963 8312288 6335138
3072 10506649 8536213 6337137
3073 10801725 8944418 6426964
3074 10936214 9102444 6533524
3075 10818120 9121123 6553300
3076 10657828 8742335 6430151
3077 10553021 8350095 6115808
3078 10399927 8176671 6040380
3079 10328480 7931077 5916191
3080 10339814 7980134 5906119
3081 10158644 7648176 5811925
3082 9892972 7403294 5789926
3083 9697921 7252332 5897099
3084 9670265 7181264 5834891
3085 9542252 7134530 5894949
3086 9473159 7007389 5822704
3087 9321214 6954092 5926709
3088 9170288 6740625 5913078
3089 9101167 6793730 5939801
3090 9051913 6650512 5840851
3091 9122448 6695159 5829736
3092 9001954 6532677 5820033
3093 8767244 6117146 5663755
3094 8523236 5797742 5600619
3095 8370841 5625684 5507812
3096 8451931 5704819 5545812
3097 8503406 5712485 5569375
3098 8486309 5728359 5539836
3099 8534610 5724998 5564144
3100 8597813 5705771 5401650
3101 8536295 5796812 5497238
3102 8656234 5798992 5486912
3103 8741136 5963196 5499587
3104 8855014 5957737 5409844
3105 8909870 6062961 5460349
3106 8903474 6153788 5525108
3107 8840805 6010200 5500706
3108 8754803 5943058 5478547
3109 8848147 5933044 5383514
3110 8915055 6062767 5421987
3111 8959048 6020908 5393647
3112 8865199 5984735 5385436
3113 8998085 5914064 5260829
3114 8997104 5994359 5310073
3115 8912583 6024362 5432760
3116 9002186 6064903 5403070
3117 8953552 6164215 5546061
3118 8965645 6161321 5475314
3119 9088913 6355015 5560787
3120 8977316 6136262 5503240
3121 8796748 6034771 5530757
3122 8742544 5950718 5505900
3123 8737419 5871318 5429579
3124 8587301 5847121 5542275
3125 8748594 5827454 5399804
3126 8764124 5795351 5308980
3127 8679169 5683239 5317770
3128 8607021 5754464 5459640
3129 8623663 5845197 5524234
3130 8745339 5899013 5421517
3131 8880508 5971486 5420753
3132 8941557 5927642 5270539
3133 8863771 5980827 5385077
3134 8842901 5850871 5327840
3135 8793417 5965822 5476145
3136 8735233 5966285 5533503
3137 8728279 5989911 5522091
3138 8702170 5967025 5547411
3139 8779951 5968320 5484788
3140 8817360 6045793 5559733
3141 8836469 6048768 5499599
3142 8834571 6150319 5563764
3143 8829050 6010232 5502403
3144 8897408 6096742 5519013
3145 8832115 6016683 5499900
3146 8906056 6021880 5409653
3147 9066724 6229342 5466871
3148 9012746 6151611 5448237
3149 8927675 6161999 5530622
3150 8861249 6056680 5513670
3151 8944181 6224775 5556477
3152 8910103 6176147 5603022
3153 8892338 6111160 5531416
3154 8899090 6100129 5568795
3155 8872061 6164056 5606438
3156 8881689 6229926 5653192
3157 8935776 6157067 5554554
3158 9066047 6391039 5569522
3159 9145943 6349813 5526388
3160 9154881 6492232 5603173
3161 9247247 6533843 5601202
3162 9236574 6468838 5555646
3163 9118196 6431565 5603169
3164 9171750 6410018 5532283
3165 9104886 6460170 5603663
3166 9205225 6479490 5609405
3167 9137623 6539769 5625478
3168 9081738 6413227 5660999
3169 9078158 6307526 5588469
3170 9025156 6335473 5651220
3171 9150672 6361588 5510305
3172 9195694 6527941 5620208
3173 9211637 6473323 5553973
3174 9220906 6476991 5528194
3175 9120371 6313219 5504686
3176 8989630 6300943 5612133
3177 8855675 6158644 5604734
3178 8705052 5988775 5565422
3179 8717283 6028402 5637035
3180 8698466 5987673 5586571
3181 8763311 6203716 5732606
3182 8896609 6254232 5699996
3183 8869495 6331627 5716665
3184 8977710 6404514 5754251
3185 9030107 6489880 5723189
3186 9037184 6478233 5776560
3187 9003063 6443094 5696717
3188 9009586 6460353 5792364
3189 9025567 6381748 5653913
3190 9003729 6384473 5688056
3191 8979610 6365856 5681515
3192 8866212 6282426 5701105
3193 8836040 6227147 5660071
3194 8901073 6195387 5566551
3195 8880425 6340175 5753781
3196 8889619 6312437 5698834
3197 8892728 6321058 5713306
3198 9011205 6390029 5692805
3199 9015125 6538601 5755509
3200 9103352 6599181 5764188
3201 9112694 6573376 5750986
3202 9151879 6717079 5849256
3203 9212157 6706186 5846120
3204 9181133 6807033 5891528
3205 9178446 6652546 5812341
3206 9290932 6827562 5797903
3207 9352559 6791163 5776752
3208 9319286 6782455 5770867
3209 9110304 6604570 5790211
3210 9118746 6577252 5732212
3211 9160874 6693482 5862683
3212 9216497 6645361 5731955
3213 9186991 6833475 5878479
3214 9199103 6793575 5936200
3215 9171047 6837961 5884436
3216 9147797 6715632 5870700
3217 9219920 6775499 5839618
3218 9171033 6822407 5979982
3219 9157021 6793039 5867346
3220 9309415 6976269 5935056
3221 9164086 6782413 5898062
3222 9144971 6828191 5920101
3223 9211892 6800053 5920678
3224 9203353 6894630 6014436
3225 9239086 6989904 6013981
3226 9307615 7009331 5970201
3227 9216191 7007659 6097620
3228 9193857 6912345 5999449
3229 9267342 6981674 6000502
3230 9328041 6938514 5921181
3231 9376089 6998603 5898572
3232 9341355 6985944 5981089
3233 9464449 7078389 5917458
3234 9464805 7119359 5975324
3235 9321931 6961689 5937108
3236 9315365 7097122 6058227
3237 9398855 7070828 5976238
3238 9309570 7047190 6045928
3239 9233502 6996356 6085867
3240 9245724 7120339 6153009
3241 9301437 7152368 6195293
3242 9397075 7161155 6067948
3243 9382027 7211273 6080834
3244 9404114 7164491 6044797
3245 9452173 7225483 6064221
3246 9505331 7208906 6067604
3247 9663154 7421898 6001575
3248 9643984 7367861 6007638
3249 9477950 7162373 5995264
3250 9312145 7032236 6030655
3251 9158035 6785991 6006087
3252 8943756 6607804 5987784
3253 8885044 6392184 5885132
3254 8743383 6367091 5935764
3255 8721826 6434454 6021472
3256 8884485 6449170 5887265
3257 8916471 6548246 5969351
3258 8949250 6592312 5950692
3259 8992821 6771435 6023728
3260 9179409 6753428 5874425
3261 9191687 6845005 5932565
3262 9139490 6811098 5989294
3263 9206669 6879695 5921419
3264 9221900 6969170 6015131
3265 9303578 7043471 6022390
3266 9266287 7005504 6052029
3267 9295885 6892729 5933968
3268 9346400 6963890 5876876
3269 9386686 6828858 5752264
3270 9408019 6985451 5851988
3271 9264509 6904690 5943652
3272 9111158 6686626 5864895
3273 9042520 6689841 5894400
3274 9142820 6633620 5780476
3275 9168083 6748047 5846935
3276 9163671 6654391 5805180
3277 8993890 6565786 5865073
3278 8847984 6400774 5877466
3279 8776229 6350871 5839090
3280 8804041 6340496 5866103
3281 8798882 6349254 5781162
3282 8804860 6395249 5828574
3283 8955297 6435174 5830310
3284 8993030 6588171 5892383
3285 8975725 6545605 5880094
3286 8974445 6571516 5851400
3287 9012336 6619382 5933124
3288 9075730 6613774 5817970
3289 9104527 6705204 5856869
3290 9152530 6607149 5740084
3291 9198558 6731211 5786446
3292 9129549 6619327 5801026
3293 9145043 6660398 5720930
3294 9109336 6529334 5764500
3295 9030031 6586287 5817940
3296 9006812 6594354 5889088
3297 8881453 6472839 5873326
3298 8915703 6561569 5940947
3299 8941509 6541043 5908025
3300 8987318 6623614 5871699
3301 8922861 6417494 5838364
3302 8793342 6339196 5817155
3303 8806617 6347542 5865377
3304 8848618 6365947 5836161
3305 8846335 6427279 5866737
3306 8991668 6397692 5779448
3307 9057177 6598718 5803875
3308 8902860 6375607 5809691
3309 8992419 6482510 5735586
3310 9075026 6549879 5794399
3311 9045360 6538916 5772708
3312 9016957 6514413 5803237
3313 8973412 6415627 5736873
3314 9062070 6546694 5725273
3315 9130161 6541429 5745138
3316 9092172 6605524 5744992
3317 8988867 6537088 5832241
3318 9062370 6607527 5824946
3319 8957139 6589035 5927511
3320 9056440 6596333 5853381
3321 9049694 6687164 5923973
3322 9035097 6641072 5905425
3323 9162380 6720151 5857632
3324 9165235 6689049 5817253
3325 9222140 6731120 5786655
3326 9182663 6654203 5734502
3327 9107977 6521639 5715594
3328 9017532 6595338 5833852
3329 9037456 6542766 5803095
3330 9129531 6623879 5776311
3331 9221583 6645158 5760511
3332 9214010 6724851 5782176
3333 9254358 6759924 5733554
3334 9318948 6764534 5754129
3335 9213788 6781288 5848194
3336 9181394 6745411 5842031
3337 9136770 6817806 5955708
3338 9190575 6792516 5902477
3339 9241547 6946568 5998063
3340 9291750 6986787 5973511
3341 9325291 7047657 5995305
3342 9396740 7047084 5975047
3343 9358579 7063020 6037530
3344 9314636 7147647 6141248
3345 9364498 7115956 6034293
3346 9451197 7226876 6068130
3347 9210234 6860103 5927661
3348 8891322 6544687 5967055
3349 8673305 6304486 5983836
3350 8701886 6290443 5921339
3351 8683182 6396965 5970637
3352 8745102 6339911 5918000
3353 8877302 6594248 5943779
3354 8916426 6516964 5941992
3355 8913388 6631775 5963980
3356 8915327 6641159 6026211
3357 9069382 6782421 5984568
3358 9041232 6800356 6068578
3359 9049030 6770773 6050699
3360 9014702 6949688 6180978
3361 8993042 6845497 6131953
3362 9060422 6978597 6172607
3363 9071709 6926641 6212037
3364 8900329 6862120 6322323
3365 8849744 6849696 6290562
3366 8866350 6869700 6239322
3367 8887236 6876388 6294810
3368 8936882 6851911 6220503
3369 8994204 7013435 6296835
3370 9111917 7069602 6258879
3371 9157471 7188880 6312993
3372 9050797 7020795 6354439
3373 9217364 7175347 6237144
3374 9353402 7300085 6245366
3375 9288668 7270248 6278826
3376 9121968 7191734 6388260
3377 9228808 7141214 6271772
3378 9192834 7253070 6300575
3379 9301296 7297963 6341043
3380 9375482 7428053 6346880
3381 9368090 7480507 6430706
3382 9371085 7361063 6250865
3383 9240861 7256562 6300992
3384 9381201 7248907 6159426
3385 9289545 7182913 6167227
3386 9197637 6987261 6111441
3387 9075453 6885973 6065190
3388 8885608 6663344 6118950
3389 8788239 6535495 6058851
3390 8857579 6605663 6120241
3391 8927052 6660777 6011831
3392 8897770 6656921 6084343
3393 8853551 6557613 6024210
3394 8900333 6675622 6021851
3395 8915283 6661614 6100200
3396 9004875 6767525 6032559
3397 8932616 6673901 6027628
3398 8942597 6595397 5952675
3399 8939556 6606940 5940253
3400 8969822 6575394 5864026
3401 8982510 6672875 5960832
3402 9020626 6478291 5816304
3403 9044479 6460814 5733268
3404 9046311 6446478 5719418
3405 9066703 6451585 5702390
3406 9017171 6457160 5732518
3407 9078161 6415077 5626748
3408 8995125 6449651 5709365
3409 8945628 6353511 5717459
3410 8879475 6369509 5718232
3411 9059272 6408972 5660329
3412 9075611 6398332 5619164
3413 9120829 6473190 5670469
3414 9090838 6375974 5592749
3415 9026467 6457385 5714767
3416 8998147 6357813 5678725
3417 8940365 6386727 5720937
3418 9066882 6449822 5695840
3419 9090617 6548420 5706932
3420 9113665 6571412 5770762
3421 9102840 6577489 5726994
3422 9078332 6550979 5770238
3423 9036822 6393829 5728355
3424 9052009 6557561 5748231
3425 9128289 6474590 5696726
3426 9173864 6628807 5734786
3427 9299087 6631994 5622822
3428 9334987 6698177 5631724
3429 9448050 6791962 5628219
3430 9540203 6807932 5591912
3431 9552469 6931973 5662983
3432 9495960 6810424 5609009
3433 9436645 6823398 5649202
3434 9483202 6856931 5673699
3435 9578711 6957002 5670190
3436 9555529 6978854 5766739
3437 9574850 7038483 5758043
3438 9616420 7087809 5777655
3439 9473626 6889671 5725109
3440 9353433 6802957 5723649
3441 9182338 6564522 5688772
3442 8817128 6274463 5718767
3443 8314503 5721950 5744064
3444 8098191 5503523 5664107
3445 8087856 5519471 5738333
3446 8268666 5601209 5652041
3447 8451923 5888786 5676170
3448 8530717 5860525 5642033
3449 8586442 5969521 5645829
3450 8613225 5907475 5588702
3451 8654108 5953582 5594447
3452 8644059 6016460 5624348
3453 8756162 5981454 5535287
3454 8706336 5965464 5562178
3455 8716586 5951912 5507164
3456 8769864 6011637 5546739
3457 8737190 5951505 5500640
3458 8851913 6036393 5457226
3459 8809883 6047767 5586460
3460 8851926 6067186 5491741
3461 8882191 6027158 5455581
3462 8876807 6006950 5446355
3463 8962693 6203128 5518404
3464 9178107 6286900 5412595
3465 9249332 6381960 5396780
3466 9202615 6316943 5414281
3467 9194012 6299971 5375152
3468 9121197 6324784 5541386
3469 9180095 6443387 5572152
3470 9313400 6713805 5664535
3471 9464357 6807385 5660758
3472 9546145 7027621 5753321
3473 9631672 7147388 5808245
3474 9762221 7230788 5758924
3475 9858900 7495331 5901548
3476 10126211 7825228 5976723
3477 10235939 8074292 6089842
3478 10228218 8092464 6153424
3479 10043300 8144980 6338556
3480 9910746 8039664 6456601
3481 9905428 8241402 6643315
3482 9992485 8496083 6820589
3483 10255459 8833780 6907832
3484 10359258 9178044 7067434
3485 10569126 9296161 6995282
3486 10609789 9176359 6809172
3487 10545456 8838853 6600904
3488 10380216 8560581 6457517
3489 10290734 8308648 6309195
3490 10118944 8047594 6202502
3491 9926676 7819157 6189619
3492 9828307 7609328 6022854
3493 9678718 7510578 6089582
3494 9544265 7337368 6092932
3495 9425026 7306147 6132670
3496 9316122 7134320 6129322
3497 9197414 7123708 6171506
3498 9089484 6971491 6189145
3499 9044194 6914124 6196391
3500 8937673 6867300 6271223
3501 8967224 6778729 6115881
3502 8923427 6728703 6055969
3503 8888019 6501155 5909724
3504 8926707 6511267 5889088
3505 8907446 6349349 5748680
3506 8999029 6358450 5643625
3507 9007701 6339078 5664685
3508 9008386 6362321 5652351
3509 9019035 6475248 5742980
3510 9063422 6445510 5647771
3511 9080038 6469541 5692795
3512 9072196 6405287 5641399
3513 9035380 6417883 5670610
3514 9013648 6361835 5660831
3515 9114047 6405633 5580053
3516 9129751 6526289 5743675
3517 9172167 6496901 5691093
3518 9195735 6691331 5779105
3519 9187690 6691402 5763767
3520 9394039 6863301 5689141
3521 9412653 6782304 5704002
3522 9353896 6732977 5660352
3523 9085717 6430673 5677866
3524 8781726 6138246 5652655
3525 8539962 5913020 5704100
3526 8545676 5835030 5606155
3527 8525416 5920597 5683628
3528 8532944 5887922 5631154
3529 8651962 5991258 5662034
3530 8654381 6051577 5698848
3531 8769268 6093726 5668178
3532 8799193 6207073 5720474
3533 8787478 6163858 5659529
3534 8735933 6201969 5753327
3535 8809144 6158226 5675027
3536 8873802 6294650 5670353
3537 8905300 6268082 5683916
3538 8971482 6356317 5675580
3539 8979610 6392722 5659693
3540 8952828 6275638 5609700
3541 8876268 6305788 5694536
3542 8934861 6299970 5675123
3543 8956969 6417920 5760081
3544 8939115 6334311 5737279
3545 8853277 6303576 5749659
3546 8782265 6182579 5778600
3547 8853095 6208451 5617884
3548 9048401 6404248 5638594
3549 9270952 6435417 5498252
3550 9206446 6566872 5693578
3551 9364969 6718175 5692585
3552 9381115 6734442 5657092
3553 8978853 6393093 5742572
3554 9046005 6444258 5714589
3555 9174442 6743281 5774062
3556 9306887 6763114 5744277
3557 9376078 6935197 5848448
3558 9499883 6902082 5785915
3559 9539500 7096069 5816169
3560 9558426 7072001 5823297
3561 9590637 7156691 5816515
3562 9537348 7075375 5877668
3563 9345560 6808332 5807506
3564 8794961 6338945 5914170
3565 8316758 5810384 5840473
3566 8024053 5592656 5812981
3567 7974411 5470790 5806815
3568 8106590 5621005 5804105
3569 8347816 5866805 5846765
3570 8578989 6056224 5761187
3571 8622456 6165680 5838838
3572 8692609 6143650 5738782
3573 8717833 6264659 5855073
3574 8697458 6230980 5835959
3575 8700168 6326058 5877745
3576 8697083 6282047 5904114
3577 8718439 6354818 5927827
3578 8742434 6440121 6014799
3579 8795528 6466658 5964999
3580 8885094 6531863 5970570
3581 8956558 6490780 5816789
3582 8990691 6543521 5848494
3583 9010166 6596663 5905501
3584 9043313 6677599 5918525
3585 8969695 6621394 5938118
3586 9017278 6628088 5909128
3587 9080563 6741853 5946634
3588 9037584 6573012 5894547
3589 8929180 6585556 5997089
3590 8899708 6557344 5961722
3591 8966713 6669910 6008059
3592 8992597 6694367 6006379
3593 8999709 6742204 6030678
3594 9060750 6764541 6045270
3595 9064631 6692410 5960246
3596 9127432 6798637 5982488
3597 9197410 6733701 5906331
3598 9154303 6915884 6041741
3599 9063175 6844840 6074821
3600 9093773 6839855 6023319
3601 9098912 6772313 5970262
3602 9045141 6668805 5915862
3603 8875058 6613909 6064105
3604 8799606 6573178 6069356
3605 8870233 6723348 6091886
3606 8874129 6616292 6086632
3607 8868044 6685448 6098966
3608 8822200 6596459 6058730
3609 8946980 6687928 6014494
3610 8975718 6723426 6092802
3611 9020215 6835424 6068414
3612 8952446 6845686 6165868
3613 8992086 6761480 6110828
3614 8939146 6859911 6163081
3615 9029835 6864332 6138388
3616 9048541 6945445 6166839
3617 9037247 6886276 6157695
3618 9115749 6971214 6098563
3619 9173471 7065324 6196718
3620 9253784 7146453 6212098
3621 9370731 7292235 6227827
3622 9323882 7265395 6254377
3623 9227315 7251262 6263379
3624 9338901 7273780 6219310
3625 9401497 7347042 6218994
3626 9355011 7322931 6293307
3627 9362044 7308065 6221522
3628 9496087 7447893 6270364
3629 9555477 7558444 6251996
3630 9530928 7606973 6328418
3631 9543964 7579465 6329234
3632 9652048 7646963 6294666
3633 9599351 7603853 6339273
3634 9600451 7637090 6293200
3635 9312618 7337081 6338025
3636 8799316 6741719 6284263
3637 8442969 6559191 6404592
3638 8477109 6553100 6397702
3639 8475669 6497349 6279614
3640 8472798 6454313 6345328
3641 8575071 6638516 6318512
3642 8653046 6769368 6356038
3643 8796350 6809309 6320660
3644 8896624 6945950 6355377
3645 8960976 6912564 6282685
3646 8850233 7007504 6437524
3647 8918185 6994173 6364875
3648 9111413 7087744 6229021
3649 9083966 7072435 6328506
3650 9022118 7063788 6335194
3651 8998960 7088851 6401183
3652 9036783 6993028 6252784
3653 9025843 7091258 6366504
3654 9110561 7079265 6303078
3655 9082079 7155470 6370922
3656 9101885 7165857 6363630
3657 9108849 7191681 6330856
3658 9100596 7251938 6405559
3659 9099557 7254371 6431323
3660 9120336 7309958 6466902
3661 9194085 7227749 6347728
3662 9175733 7291093 6399282
3663 9184400 7160190 6323724
3664 9136142 7130270 6276967
3665 9197764 7149993 6264073
3666 9193456 7113924 6189478
3667 9238761 7198237 6299710
3668 9178937 7042176 6187896
3669 9077893 7045751 6302584
3670 9017189 6921123 6235900
3671 9049276 6950941 6197196
3672 9000674 6901647 6204893
3673 8981866 6888697 6150073
3674 9053651 6977393 6212646
3675 8979353 6880394 6216317
3676 9008791 7033506 6288172
3677 9099821 7059995 6279746
3678 9113302 7206902 6368334
3679 9101343 7017911 6262820
3680 8944479 6979998 6267795
3681 8896228 6958536 6341587
3682 9071099 6958468 6143757
3683 9204946 6954168 6080472
3684 9180981 6950072 6074657
3685 9144264 7028185 6164693
3686 9154423 6911335 6082347
3687 9172034 6947260 6055627
3688 9128335 6957281 6115740
3689 9285694 7016796 6084542
3690 9382970 7164978 6081068
3691 9332115 7087844 6040135
3692 9254589 7084884 6138648
3693 9218314 7039626 6106732
3694 9207905 7182719 6242596
3695 9271878 7154455 6177447
3696 9383594 7258795 6108789
3697 9397248 7229116 6140350
3698 9605920 7361992 6032914
3699 9540488 7448927 6188806
3700 9637494 7487886 6166749
3701 9604723 7556294 6191977
3702 9796574 7649948 6140552
3703 9737208 7650094 6211201
3704 9464906 7276719 6119780
3705 9089491 6871666 6084354
3706 8652971 6478906 6140063
3707 8485877 6229822 6044130
3708 8319457 6112693 6104496
3709 8228654 5957088 6083851
3710 8254734 6067536 6085632
3711 8326406 6142181 6086067
3712 8483638 6267042 6065733
3713 8512705 6308126 6119753
3714 8638740 6397787 6052789
3715 8687554 6538053 6137543
3716 8763619 6538422 6114337
3717 8704813 6614643 6172120
3718 8745238 6521215 6129786
3719 8708033 6659970 6198192
3720 8778524 6710556 6226954
3721 8837554 6762427 6131177
3722 8885878 6757362 6180546
3723 8896750 6701878 6091120
3724 8880561 6771539 6185055
3725 8948509 6723255 6051008
3726 8976732 6801019 6128433
3727 8978992 6789400 6126710
3728 8951346 6786877 6044941
3729 8939695 6735241 6126229
3730 8924266 6752814 6117145
3731 8953485 6860236 6143443
3732 9027799 6853863 6120043
3733 8947972 6826134 6148677
3734 8903832 6699552 6139740
3735 8856991 6642110 6073834
3736 8922305 6714801 6038866
3737 9056046 6799541 6037494
3738 8941047 6822141 6142007
3739 8927264 6736958 6100097
3740 8914636 6876862 6238328
3741 9089647 6922930 6156388
3742 9064541 6981414 6242668
3743 9015925 6891009 6191637
3744 8919688 6875917 6223548
3745 8913424 6878823 6279342
3746 8866464 6895249 6286753
3747 8774868 6893157 6373403
3748 8794912 6732015 6207321
3749 8822667 6697447 6109377
3750 8860560 6654092 6115764
3751 8881110 6860183 6215079
3752 8926780 6835813 6216613
3753 8930091 6881669 6220715
3754 8912636 6896413 6320475
3755 8926557 6905814 6260060
3756 8899721 7033274 6398684
3757 8912614 6973524 6393014
3758 9015520 7129777 6374229
3759 9145419 7089109 6302781
3760 9034756 7117471 6353018
3761 8949225 7051507 6453413
3762 9031000 7063156 6272341
3763 9054354 7088058 6305636
3764 9156613 7058617 6218375
3765 9143770 7166064 6305067
3766 9196346 7130188 6280400
3767 9126588 7183152 6348940
3768 9070883 7120629 6405630
3769 9046535 7030626 6283645
3770 8922755 7051503 6408289
3771 8941218 7037007 6348483
3772 8949163 7114122 6433793
3773 8917365 7032053 6437193
3774 8897241 7045318 6457204
3775 8870606 7067864 6520612
3776 8920714 7206881 6535889
3777 9001028 7272268 6605967
3778 9024638 7323894 6583863
3779 8988766 7365766 6689367
3780 9074342 7432133 6629673
3781 9186597 7626563 6693199
3782 9223488 7623552 6715038
3783 9262605 7726745 6739047
3784 9293886 7766361 6740630
3785 9407026 7757100 6659350
3786 9434418 7876918 6670275
3787 9460917 7771705 6573144
3788 9343704 7775936 6694303
3789 9480506 7843605 6674080
3790 9625566 7948412 6553132
3791 9731916 7966127 6545484
3792 9672717 7947453 6559604
3793 9636867 7920043 6557664
3794 9802555 7953130 6464986
3795 9644678 7887279 6527803
3796 9106753 7237764 6488944
3797 8437574 6731805 6621409
3798 8117630 6351911 6523157
3799 8118130 6319152 6444977
3800 8184811 6340139 6479782
3801 8320066 6421611 6382420
3802 8374140 6550374 6520418
3803 8433746 6560474 6387579
3804 8465473 6688863 6442081
3805 8608833 6654022 6365497
3806 8753414 6722775 6236282
3807 8783552 6671472 6183664
3808 8848899 6686212 6114025
3809 8838165 6763711 6223454
3810 8807260 6687010 6186586
3811 8828054 6684137 6133359
3812 8808797 6561263 6112675
3813 8792751 6613810 6136580
3814 8757305 6550303 6094816
3815 8846246 6586719 6038534
3816 8818086 6688568 6172769
3817 8870763 6630500 6124991
3818 8863001 6650913 6061565
3819 8979926 6671205 6031466
3820 8983490 6800234 6076125
3821 8966227 6669881 6046394
3822 8863113 6602594 5999202
3823 8857764 6584556 6054677
3824 8830713 6614238 6033571
3825 8846087 6647697 6067490
3826 8849630 6556371 5989349
3827 8764613 6594869 6108177
3828 8816954 6562844 6044528
3829 8822056 6534311 5954934
3830 8797708 6475634 6008163
3831 8909115 6543700 5906092
3832 8863518 6612802 6045224
3833 8940085 6632927 5987011
3834 9062447 6812562 5999104
3835 9019204 6740410 6046511
3836 8949240 6747855 6060885
3837 8832168 6528379 6003085
3838 8898542 6623987 6006057
3839 8952454 6629014 6054480
3840 9033484 6710789 5921291
3841 9027776 6790099 6025458
3842 9046384 6688339 5960493
3843 9025826 6735428 5978654
3844 9083606 6716713 5943841
3845 9134178 6904252 6064211
3846 9068664 6812703 6050003
3847 8946052 6598617 5929492
3848 8789206 6498229 5981172
3849 8617180 6217930 5916064
3850 8439296 6136341 5958371
3851 8493112 6027476 5892797
3852 8564279 6118018 5846719
3853 8606618 6211206 5930020
3854 8653316 6280740 5905984
3855 8707775 6387967 5983081
3856 8834961 6389599 5836158
3857 8877788 6484129 5943856
3858 8803327 6430320 5939882
3859 8880141 6491705 5921004
3860 8903977 6434320 5859452
3861 8897843 6462506 5851669
3862 8807514 6439042 5961373
3863 8824844 6380709 5886670
3864 8885034 6507225 5885258
3865 8900235 6411409 5825494
3866 8884209 6436057 5840269
3867 8880782 6355496 5783350
3868 8852349 6327385 5788389
3869 8820547 6292989 5813844
3870 8762773 6234175 5767945
3871 8806381 6314329 5795947
3872 8959979 6323731 5644101
3873 8952824 6403334 5779585
3874 8944907 6385378 5769691
3875 8928941 6553544 5923887
3876 8956434 6568137 5945074
3877 9034380 6613373 5840357
3878 9115094 6807827 5985123
3879 9208717 6914350 6022675
3880 9331807 7178783 6130426
3881 9469029 7307250 6170615
3882 9445671 7449453 6285376
3883 9513318 7479399 6299571
3884 9446115 7508999 6314574
3885 9594667 7618079 6308111
3886 9644299 7677354 6315467
3887 9540388 7867025 6533400
3888 9670977 7916770 6563735
3889 9816174 8356822 6804964
3890 10000424 8514648 6848519
3891 10113931 8787765 6948002
3892 10258733 9103719 7172279
3893 10420940 9442909 7356176
3894 10555570 9773699 7463807
3895 10686804 9884477 7448310
3896 10644767 9861916 7459521
3897 10605516 9551695 7306333
3898 10477045 9365953 7098381
3899 10314524 9001894 6970799
3900 10251916 8788288 6787411
3901 10099927 8463487 6663221
3902 9938938 8166751 6491802
3903 9780758 8013900 6539064
3904 9633140 7741529 6408455
3905 9557074 7662240 6391908
3906 9451058 7492750 6358300
3907 9353351 7432867 6368463
3908 9180943 7252718 6358763
3909 9087013 7115847 6264945
3910 9037954 7059308 6295579
3911 8966088 6826581 6168591
3912 8919073 6863214 6170174
3913 8955516 6680306 6030235
3914 8948325 6695009 5974148
3915 9019712 6656258 5980791
3916 9044506 6697500 5885547
3917 8912553 6623998 6007917
3918 8844669 6616308 6050644
3919 8827170 6664075 6111335
3920 8873611 6541494 5978014
3921 8831630 6592309 6059583
3922 8904695 6599065 6033513
3923 8878743 6613649 6030201
3924 8847467 6590535 6084013
3925 8944785 6544673 5908712
3926 9004979 6646854 5958524
3927 8972294 6587463 5940059
3928 8799026 6534261 5994231
3929 8721797 6340707 5927667
3930 8774300 6419792 5881034
3931 8834029 6435060 5912800
3932 8858143 6481377 5878797
3933 8779571 6495678 6000103
3934 8831950 6496996 5915627
3935 8836286 6510531 5949201
3936 8801560 6337536 5865209
3937 8717297 6426370 5928426
3938 8765735 6437894 6001878
3939 8783859 6463571 5962109
3940 8757803 6481625 6023046
3941 8774140 6460304 5974096
3942 8859785 6580289 6007562
3943 8884520 6480653 5948018
3944 8763367 6426461 5987908
3945 8801823 6376996 5895477
3946 8881674 6459088 5854888
3947 8944294 6499303 5877908
3948 8904192 6487484 5883211
3949 8860028 6515120 5969027
3950 8853211 6515738 5927430
3951 8846708 6588331 5988278
3952 8915048 6528277 5934376
3953 8986999 6642787 5889709
3954 8987946 6593752 5911615
3955 9084425 6610545 5795860
3956 9085982 6667654 5918659
3957 8993069 6554949 5845323
3958 8772536 6514531 5988013
3959 8643087 6314546 6013650
3960 8452362 6207234 6089686
3961 8552223 6354197 6088568
3962 8717114 6470361 6041388
3963 8844632 6594418 6063616
3964 8828134 6596409 6039277
3965 8783139 6585772 6128527
3966 8712955 6452466 6039944
3967 8679899 6485556 6041285
3968 8741243 6352168 5939464
3969 8786216 6493990 5953176
3970 8802956 6515292 6015220
3971 8846115 6491147 5928850
3972 8745739 6556899 6108841
3973 8644465 6449755 6076877
3974 8879931 6569694 6018704
3975 8924417 6543358 5921865
3976 9019635 6752526 5951169
3977 9093025 6806775 6028738
3978 9219009 6909015 5949146
3979 9240531 6985639 6057634
3980 9338354 7062935 5987613
3981 9275964 7084555 6049131
3982 9263653 7015884 6074670
3983 9281178 7146073 6119074
3984 9372329 7135496 6116420
3985 9338285 7237016 6124118
3986 9354097 7234947 6180555
3987 9404561 7265008 6150416
3988 9438550 7381830 6183997
3989 9474228 7292826 6138478
3990 9500166 7407377 6161369
3991 9501112 7274783 6047869
3992 9058795 6914377 6159303
3993 8567824 6406046 6177026
3994 8173773 6007900 6118535
3995 7918715 5815490 6221648
3996 8013266 5847299 6126156
3997 8088493 6076380 6202430
3998 8361955 6235288 6184244
3999 8461276 6395270 6239555
4000 8577152 6493447 6256517
4001 8665562 6653698 6208172
4002 8619335 6615657 6252353
4003 8633348 6567369 6203049
4004 8597859 6557019 6235532
4005 8719509 6602966 6203066
4006 8719409 6722187 6288643
4007 8833382 6726560 6205067
4008 8829751 6744395 6214756
4009 8798693 6708411 6201689
4010 8796667 6689982 6145707
4011 8759092 6749671 6277838
4012 8796855 6663378 6201742
4013 8778019 6785178 6278018
4014 8818833 6782941 6257380
4015 8919746 6910339 6264710
4016 8951586 6989471 6337553
4017 9013072 7028521 6294641
4018 9025873 7043468 6300941
4019 8974153 6946530 6238037
4020 8932120 7043333 6399976
4021 8996754 7097798 6434331
4022 9057527 7197367 6360919
4023 8998230 7037817 6374467
4024 8969823 7104730 6373492
4025 9095151 7210146 6441910
4026 9109320 7226375 6378613
4027 9114400 7265732 6403089
4028 9031666 7154015 6368682
4029 9032949 7245670 6490295
4030 9122459 7265133 6440280
4031 9136340 7272268 6421959
4032 9025688 7178022 6462040
4033 8889141 6991692 6396101
4034 8852063 6992386 6441391
4035 8880842 6977208 6408638
4036 8873299 7123460 6538694
4037 8934995 7090675 6455757
4038 8924018 7168183 6469624
4039 9023420 7175451 6443447
4040 9030571 7173626 6432852
4041 8958788 7213666 6574066
4042 8966227 7268186 6559706
4043 8998717 7385167 6645542
4044 8931304 7214978 6563895
4045 9035698 7280160 6567018
4046 9129868 7300381 6416667
4047 9082586 7274046 6488150
4048 9000130 7211450 6478097
4049 9002136 7120624 6409957
4050 8868875 7128844 6556074
4051 8790823 7070770 6591006
4052 8923390 7241878 6596308
4053 8979702 7151230 6469808
4054 9025427 7112471 6404316
4055 8903551 7112743 6552154
4056 8889574 7186002 6522414
4057 8991960 7244168 6586585
4058 9019122 7237773 6515211
4059 8998283 7328742 6556559
4060 9057222 7242668 6520230
4061 9054633 7343943 6557849
4062 9075620 7270712 6512430
4063 9126931 7276709 6475609
4064 9116304 7333839 6557333
4065 9153948 7371274 6515974
4066 9050915 7370504 6589592
4067 9063398 7281919 6535073
4068 9054731 7342234 6497504
4069 9190463 7326869 6449472
4070 9201393 7340391 6424754
4071 9217516 7444526 6509605
4072 9314116 7498393 6437935
4073 9379824 7534127 6444206
4074 9455785 7581708 6408206
4075 9504647 7714406 6523554
4076 9545176 7684676 6439241
4077 9580133 7695987 6425325
4078 9479154 7706609 6459877
4079 9533445 7686758 6416726
4080 9577105 7746924 6519352
4081 9386312 7523734 6426504
4082 9261174 7438536 6506473
4083 9215337 7394445 6503276
4084 9134049 7436780 6556653
4085 9118374 7284775 6499488
4086 9028703 7192957 6452941
4087 8804101 6888912 6379362
4088 8542084 6470485 6216604
4089 8405156 6433157 6311411
4090 8475021 6430426 6275241
4091 8534925 6617766 6355089
4092 8577351 6606147 6340081
4093 8633589 6732876 6334046
4094 8712365 6746233 6308106
4095 8737164 6712186 6250502
4096 8716641 6764277 6316553
4097 8758109 6727800 6267597
4098 8863183 6920865 6290883
4099 9008857 6886964 6250209
4100 8960386 6972513 6263539
4101 9007603 6948270 6287104
4102 8909587 6950564 6337112
4103 8946778 6997817 6364149
4104 8900180 6941994 6319916
4105 8831395 6941493 6392389
4106 8876311 6831779 6268714
4107 8958825 6937938 6262702
4108 9005196 6943898 6244030
4109 9006551 6983435 6235102
4110 8937548 6914692 6293348
4111 8890617 6913358 6258658
4112 8968667 7024189 6321472
4113 9042788 6922599 6223064
4114 9002589 6958948 6224493
4115 8873012 6836951 6252829
4116 8958657 6974130 6265349
4117 8956785 6970185 6328365
4118 8961128 7037302 6300798
4119 9019131 7114796 6389133
4120 9061331 7076531 6295942
4121 9158074 7206548 6287702
4122 9159420 7111347 6283428
4123 9133769 7181745 6297450
4124 9099313 7074021 6294821
4125 9027541 7069984 6312350
4126 8980880 7062213 6307346
4127 9044388 6976535 6248156
4128 8986648 6999376 6265780
4129 9131534 7064223 6261142
4130 9062112 7136243 6363002
4131 9023755 7040007 6372920
4132 8993316 7033898 6327103
4133 9033380 7124008 6409401
4134 9061454 7108192 6352405
4135 9072799 7221087 6384661
4136 9169992 7081315 6247358
4137 9124477 7174597 6325572
4138 9048111 7108101 6343371
4139 9050919 7105922 6341979
4140 9012676 7086715 6413390
4141 8874617 6883172 6279068
4142 8721474 6792289 6343487
4143 8715028 6678771 6245419
4144 8719472 6785905 6342838
4145 8697607 6693767 6314143
4146 8677501 6716431 6303029
4147 8674784 6688220 6308216
4148 8766336 6704779 6259021
4149 8931723 6874818 6249271
4150 8892731 6862506 6300147
4151 8845970 7004879 6421525
4152 8818264 6874641 6349144
4153 8843091 6926576 6386854
4154 8858265 6883535 6333106
4155 8972568 6950707 6259337
4156 8997337 6966435 6318307
4157 8960331 6961502 6298943
4158 9005470 7173158 6410998
4159 9024660 7166554 6456452
4160 9048569 7315655 6524255
4161 8989759 7225009 6565345
4162 8996795 7243170 6502868
4163 9068095 7236827 6450350
4164 9131680 7244214 6388580
4165 9090194 7326367 6530000
4166 9106766 7242288 6457773
4167 9179829 7432322 6520558
4168 9121398 7328088 6523666
4169 9028580 7270020 6521337
4170 8996411 7163691 6519035
